3.718836850347055027e-03
2.645046953033173762e-02
9.009095448815598872e-02
2.008485931407725522e-01
3.383074166312373676e-01
4.689636683208718848e-01
5.652822297798523188e-01
6.153061476268892882e-01
6.222557306329191684e-01
5.989312953241271442e-01
5.615310536712294631e-01
5.246315381957203927e-01
4.975226451693406382e-01
4.825892051353487533e-01
4.766229840828514197e-01
4.744135025310358134e-01
4.721726885785365035e-01
4.684491885777912201e-01
4.627259668838711870e-01
4.543824440922860641e-01
4.435339690851545225e-01
4.319377096745322664e-01
4.219370479702403975e-01
4.144543174904029015e-01
4.085676152842045994e-01
4.030893719553652055e-01
3.978655698710666933e-01
3.931788414194859471e-01
3.885051408964999009e-01
3.826016167227660469e-01
3.749773238647866047e-01
3.668772173750456944e-01
3.602166654529431744e-01
3.555306644302090868e-01
3.514352978095951485e-01
3.462282463248135267e-01
3.397163878980213325e-01
3.331184813818220403e-01
3.273556685127679278e-01
3.220958667210328530e-01
3.166234347446721387e-01
3.110783583404941877e-01
3.062975210646344260e-01
3.025900360579787396e-01
2.996600319055072736e-01
2.988066843366510295e-01
3.053253342011972848e-01
3.275088776478572994e-01
3.711226815673865920e-01
4.332862935519545822e-01
5.012610016779530664e-01
5.559531721254529213e-01
5.757772567107501960e-01
5.411250178139278555e-01
4.422490960346379119e-01
2.871760600723463064e-01
1.027319524796357353e-01
-7.415561045086743741e-02
-2.108547395671743763e-01
-2.893128646536069493e-01
-3.062089755012804004e-01
-2.681726896827448803e-01
-1.889908694648039789e-01
-8.791002203728459641e-02
1.451102053582337126e-02
1.021664696026373109e-01
1.669032058576094268e-01
2.078693442731722740e-01
2.285352226795543951e-01
2.341485663807925666e-01
2.305886469184703635e-01
2.237152041502920019e-01
2.180664295904836125e-01
2.153978392840559808e-01
2.147827951314352779e-01
2.144952165106116526e-01
2.137680058134189820e-01
2.128443427360855456e-01
2.118451036935729004e-01
2.102338880466981808e-01
2.075938621760453628e-01
2.044751964771638342e-01
2.019674480376902892e-01
2.004565021796623769e-01
1.992557832834188081e-01
1.976976962732907572e-01
1.961688833211775451e-01
1.955969012793868922e-01
1.961266640894673285e-01
1.969331716706577140e-01
1.975463543786036835e-01
1.988418940438851368e-01
2.022370103145681997e-01
2.081024897709279342e-01
2.154576921281591284e-01
2.232933830705126077e-01
2.317156455263877923e-01
2.414336016977561283e-01
2.524185983526554544e-01
2.636350648745587888e-01
2.741564335908546757e-01
2.839791241806776667e-01
2.933086603382578095e-01
3.013882221293106012e-01
3.066036806186770436e-01
3.077974809285865532e-01
3.052320568304621728e-01
3.000962461154692562e-01
2.931729813196247703e-01
2.843235274190739625e-01
2.722164940926821153e-01
2.526626178604097772e-01
2.192132768742518500e-01
1.689052223134951403e-01
1.067629737711414117e-01
4.392801324007522545e-02
-7.675330459428697516e-03
-4.038532771269021104e-02
-5.345271526024408804e-02
-5.197176453243257388e-02
-4.305941489532705280e-02
-3.237024528012943936e-02
-2.323008217270838838e-02
-1.764009659929866025e-02
-1.675546570041497318e-02
-2.014168640671398780e-02
-2.555402925132599368e-02
-3.040529567296956781e-02
-3.355649899771695477e-02
-3.552757120835214888e-02
-3.718256939530906191e-02
-3.865465996296990614e-02
-3.972012424924065144e-02
-4.082621794166141349e-02
-4.304683721537760910e-02
-4.675285469115320058e-02
-5.089565928640804593e-02
-5.413659899865341796e-02
-5.639063143397171629e-02
-5.882219129628518672e-02
-6.240289442523161423e-02
-6.687091307505876880e-02
-7.137373117662504374e-02
-7.581187206575934479e-02
-8.090874622907917590e-02
-8.691764651141764553e-02
-9.290007772598596336e-02
-9.767340137043034609e-02
-1.011735093690349085e-01
-1.044293787392115425e-01
-1.081515993830451938e-01
-1.118039665221154944e-01
-1.144513878427673714e-01
-1.161469052093459520e-01
-1.178894968142555899e-01
-1.203066115872115094e-01
-1.228841182006470967e-01
-1.246944206733522909e-01
-1.256030684452479895e-01
-1.263703085141938964e-01
-1.275316350902872542e-01
-1.285980884740942631e-01
-1.287711757637345356e-01
-1.282572597910998646e-01
-1.282940773192889350e-01
-1.296711886122628998e-01
-1.316967152450087553e-01
-1.332001043045124566e-01
-1.342258567403456504e-01
-1.358972230383797553e-01
-1.387543158154763701e-01
-1.420809196367237015e-01
-1.449868481524206332e-01
-1.475567523095800970e-01
-1.505674211606523039e-01
-1.542388719195587621e-01
-1.577405132801039112e-01
-1.602424778957676765e-01
-1.620741450149629781e-01
-1.642088104326315245e-01
-1.666698276489536612e-01
-1.681020119070282259e-01
-1.673424830893666670e-01
-1.650819307738378150e-01
-1.632542295492603324e-01
-1.627758362271314874e-01
-1.627753908620922507e-01
-1.624792709508121602e-01
-1.627734891572970577e-01
-1.646942024710243979e-01
-1.670169622288523170e-01
-1.670368384723281974e-01
-1.640763678805101655e-01
-1.607000347230474468e-01
-1.594347289725340788e-01
-1.593746503622455180e-01
-1.574967415355071898e-01
-1.530695829574315603e-01
-1.489529434316873013e-01
-1.476644623354228525e-01
-1.476000066994350712e-01
-1.446479120811002828e-01
-1.365032148701554870e-01
-1.222668644642718738e-01
-9.743842036563721276e-02
-5.423880110824874645e-02
8.506533292672591173e-03
7.620208047590837364e-02
1.225854913072311758e-01
1.245191544570064535e-01
7.299517073476924356e-02
-2.505255858667454483e-02
-1.494312799864576657e-01
-2.739047903536371287e-01
-3.774193241305076052e-01
-4.502852101123427930e-01
-4.909463621360803942e-01
-5.002314533973242217e-01
-4.797383445292088822e-01
-4.334274197643236404e-01
-3.682951796373459818e-01
-2.940100824413455771e-01
-2.228322361209373881e-01
-1.668018082144670511e-01
-1.314794462900894523e-01
-1.130271680953947588e-01
-1.033734217970123104e-01
-9.812821766458879047e-02
-9.795594340406632572e-02
-1.025884697872858076e-01
-1.068437894683912370e-01
-1.049254989177773600e-01
-9.729464921935254695e-02
-9.022498200517603539e-02
-8.794654883743679985e-02
-8.786642242585790408e-02
-8.503014994988600250e-02
-7.941159954404497512e-02
-7.599706383835869161e-02
-7.757038875178484671e-02
-8.045641521549112829e-02
-7.925286301562062263e-02
-7.412881297523837842e-02
-7.055228759564829977e-02
-7.150941532507798515e-02
-7.305578838748694182e-02
-6.948538872153253720e-02
-6.113841221961296979e-02
-5.390174179300533108e-02
-5.068827841044498683e-02
-4.694591929764913019e-02
-3.680335728306838305e-02
-2.174588251947917605e-02
-9.427057255547155457e-03
-3.213564966356607933e-03
2.881850254063400563e-03
1.613942623157560430e-02
3.451495274685212333e-02
4.854988835150686466e-02
5.416937606661798021e-02
5.830148369950938214e-02
6.908822455216712122e-02
8.387877066069926446e-02
9.161210684304899043e-02
8.721242891699287902e-02
7.824796042423520781e-02
7.478318444919451746e-02
7.633756233363464538e-02
7.333302172710476352e-02
6.083813066041587891e-02
4.533661135866184910e-02
3.576894130596486310e-02
3.173516486026972672e-02
2.457637808583734707e-02
9.457657699966981468e-03
-8.402181309272838128e-03
-2.115592558414214341e-02
-2.843445127571309072e-02
-3.682202027895353780e-02
-5.010365184399889760e-02
-6.398262092946360724e-02
-7.215466379544177578e-02
-7.495026090825052112e-02
-7.872751159679752808e-02
-8.708268998217372214e-02
-9.623890084660702282e-02
-1.005656681385371787e-01
-1.003041938858417748e-01
-1.011418794864380466e-01
-1.063068122999301646e-01
-1.120391149886429960e-01
-1.126186272425971913e-01
-1.081768902971244617e-01
-1.046174558272688349e-01
-1.056147962077960134e-01
-1.078671717157650978e-01
-1.060644050964293372e-01
-1.005320046539193712e-01
-9.690156158034129996e-02
-9.821232744923863445e-02
-1.006706079406640142e-01
-9.894518728496876081e-02
-9.357371632636907188e-02
-9.019424342418902452e-02
-9.151589111964308909e-02
-9.328664750439163988e-02
-8.993021460695171942e-02
-8.229619481565286776e-02
-7.694085419171536877e-02
-7.763224146320907293e-02
-8.073072824086541255e-02
-8.053491102286575165e-02
-7.705399292986836457e-02
-7.573789500400324171e-02
-7.968695685597404488e-02
-8.522828538928478581e-02
-8.678836232250930482e-02
-8.426245196040493823e-02
-8.280999452242265857e-02
-8.539465502666915286e-02
-8.869282548191026461e-02
-8.791439056929112317e-02
-8.365588632740761366e-02
-8.139368653392403674e-02
-8.419961682585375140e-02
-8.868133425211649490e-02
-8.961960581627664846e-02
-8.691985033354748813e-02
-8.524952468657820415e-02
-8.703492055082301393e-02
-8.996390088897998627e-02
-9.227731383148957134e-02
-9.553252065528194947e-02
-1.002755211784276401e-01
-1.029509944714213088e-01
-9.977519991876726557e-02
-9.228440389567910129e-02
-8.639437848620779015e-02
-8.555041451600775559e-02
-8.709999128059214835e-02
-8.659412923448001065e-02
-8.399813000434069865e-02
-8.345448765359381182e-02
-8.711792951357311132e-02
-9.184835768047588944e-02
-9.323240995823095512e-02
-9.127507178620408723e-02
-9.004383589250503084e-02
-9.177300799383453223e-02
-9.364569633255576120e-02
-9.167035529786188297e-02
-8.631132782951833615e-02
-8.211001193647837759e-02
-8.167072571439404349e-02
-8.232515737967988079e-02
-8.002774223468656078e-02
-7.507198402357145861e-02
-7.166055057654752147e-02
-7.187045898363930707e-02
-7.258178548457133727e-02
-6.964638848456183862e-02
-6.362937304093224666e-02
-5.927239496755098980e-02
-5.923973837248680541e-02
-6.067820947177254842e-02
-5.915859956205382630e-02
-5.466564902062254205e-02
-5.149697435959343927e-02
-5.207773895527195718e-02
-5.338417286478608359e-02
-5.092423270797702406e-02
-4.439497490622990039e-02
-3.604155360062832880e-02
-2.291140251662293625e-02
4.919664259646627791e-03
5.382075908837546940e-02
1.146094297716365173e-01
1.656545927759216497e-01
1.884190460685519763e-01
1.755019483938727864e-01
1.271946818856187211e-01
4.921573965151138097e-02
-4.685802534117006202e-02
-1.461113856464040794e-01
-2.341446699432830070e-01
-2.996861463748271559e-01
-3.359589113267046345e-01
-3.410943087082554670e-01
-3.179409847227483987e-01
-2.727291585074999025e-01
-2.139559280131743124e-01
-1.525827302338603197e-01
-9.968857462222346921e-02
-6.080336792283602687e-02
-3.367487760438125921e-02
-1.324747574462953326e-02
1.760563341722254371e-03
8.875646666595182754e-03
8.092988456848082546e-03
4.983877143093340401e-03
5.723963873978665795e-03
1.045170403082201771e-02
1.404103166221992716e-02
1.347882777564912704e-02
1.181913524439098806e-02
1.372345432308363922e-02
1.889027745751947762e-02
2.237999052435685199e-02
2.162425724985633790e-02
2.022821144354053358e-02
2.307913116789911401e-02
2.946212786917984383e-02
3.387450997736862757e-02
3.368588438708675081e-02
3.284704129242199677e-02
3.647261180595418040e-02
4.373851823910174241e-02
4.906290973384247467e-02
5.027175475184886277e-02
5.208925769809297224e-02
5.983167187719579116e-02
7.182724789927208420e-02
8.130137246567742393e-02
8.579241502017442844e-02
9.083604519932192423e-02
1.023954521783219662e-01
1.180523406817829968e-01
1.293790456431960223e-01
1.331688920331907666e-01
1.358817317922412782e-01
1.448734629694025111e-01
1.581239680872105202e-01
1.664863084291877682e-01
1.658645873750431710e-01
1.623966921769140481e-01
1.637161316568200853e-01
1.684029341991157835e-01
1.679172471520242738e-01
1.584570472513874839e-01
1.459979206162754783e-01
1.380033685018293710e-01
1.336942178581974616e-01
1.258072670964541229e-01
1.111283470812543528e-01
9.507728535066206632e-02
8.458132840163018473e-02
7.932275079251221994e-02
7.275605786060590496e-02
6.114746740100224232e-02
4.813258497492933774e-02
3.919991343919226878e-02
3.424501177239430705e-02
2.818062746784727457e-02
1.839332774233132239e-02
8.408673100952890334e-03
2.984531433005532808e-03
1.664623056051806049e-03
-4.769877164385039059e-04
-5.972893172393856087e-03
-1.152780233121031284e-02
-1.255097613371664034e-02
-9.382230911031963494e-03
-6.799771790911735003e-03
-7.460449344673159011e-03
-8.439552182349485676e-03
-5.601944067674613503e-03
2.598488971298773542e-04
4.129300909556543608e-03
3.567319519097833513e-03
2.062940788486899990e-03
4.308206913107237579e-03
9.835921674876957344e-03
1.373946467245185099e-02
1.360500155324712024e-02
1.285561559839404344e-02
1.587814643853696639e-02
2.175241888193529816e-02
2.535013132931623892e-02
2.428690351117229751e-02
2.189322619557321215e-02
2.259687946190314101e-02
2.629702509526726795e-02
2.901816727195688506e-02
2.857863101135077466e-02
2.724086803163006110e-02
2.822929808583696243e-02
3.116674353179255119e-02
3.245461215548833822e-02
3.008460733135714937e-02
2.616159034237286463e-02
2.395026054293653006e-02
2.364244109170637875e-02
2.254652570076359774e-02
1.941091328831368035e-02
1.648122897899290118e-02
1.645629376903390284e-02
1.867351337904249453e-02
1.969606383801897342e-02
1.764178959179607542e-02
1.434002484029184288e-02
1.266554570536065905e-02
1.277120266918407854e-02
1.216643224869434770e-02
9.551694735534077552e-03
6.884392234501102159e-03
6.802874380854251335e-03
9.040578268388776983e-03
1.079551785048066259e-02
1.058029871151044965e-02
1.004790044722403408e-02
1.144861211759823361e-02
1.423490959251239030e-02
1.536897701979328401e-02
1.314120203025975764e-02
9.293621063938717342e-03
6.713438301419794030e-03
5.890086369176483760e-03
4.756419928830746269e-03
1.975448690161252241e-03
-9.887152384192021692e-04
-1.684576113601288228e-03
1.236456787342410379e-04
2.265446680003002644e-03
3.301888270545672022e-03
4.290447624005599980e-03
6.823639112714441346e-03
1.028683308401462382e-02
1.225493055505566531e-02
1.171243152653905772e-02
1.049954236229472260e-02
1.097438588478200083e-02
1.301944173138214200e-02
1.436202764252542119e-02
1.385825634157872299e-02
1.307224704832993245e-02
1.410908610907574134e-02
1.676261947021800980e-02
1.872184380245006663e-02
1.859702389960310454e-02
1.767016784329433765e-02
1.817787116638502898e-02
2.047704531950472751e-02
2.321555433809036062e-02
2.710824604346651068e-02
3.763402107551633291e-02
6.192634448001460568e-02
1.014155746795425417e-01
1.496487345118510670e-01
1.985227704025385176e-01
2.415154219842652328e-01
2.689133961548135776e-01
2.656074232967153836e-01
2.176220485886332101e-01
1.213093608892094055e-01
-1.147014335542573260e-02
-1.544130708302517696e-01
-2.751765776780524808e-01
-3.490114632157739760e-01
-3.684647710064722359e-01
-3.413964159103210494e-01
-2.824803642493481370e-01
-2.075077641032865849e-01
-1.306811155374393851e-01
-6.200639934303528444e-02
-6.083640956500713237e-03
3.619269203060204720e-02
6.477794814523168965e-02
8.003178947072753235e-02
8.473196214132788784e-02
8.429603722604006588e-02
8.375996070025593099e-02
8.469895962204937456e-02
8.571622237582449122e-02
8.590634205360636599e-02
8.654587031637483996e-02
8.915097573197877656e-02
9.294673309854206700e-02
9.547159184677744825e-02
9.587173368461998635e-02
9.615288852017034316e-02
9.857383278398473836e-02
1.025776855874209748e-01
1.053360373909918990e-01
1.054154797583826686e-01
1.045340998397550347e-01
1.052173163246313825e-01
1.075880252891487920e-01
1.096882864415326120e-01
1.109435587201056950e-01
1.135017699446023709e-01
1.194916124325082762e-01
1.278834214139176195e-01
1.356389067689922068e-01
1.422632838695724322e-01
1.510064938925452238e-01
1.645127568404147755e-01
1.804635921617899763e-01
1.936081024477780965e-01
2.024416244039264345e-01
2.110751660484891934e-01
2.233758507023225759e-01
2.370685902975506743e-01
2.460125050462574348e-01
2.482076240839628523e-01
2.482437418797484030e-01
2.509546217308653571e-01
2.548571933577510884e-01
2.541232244747035907e-01
2.466283613059020996e-01
2.365992891499566486e-01
2.287711057106345258e-01
2.224394490433317384e-01
2.128995331305315597e-01
1.980486038885046485e-01
1.809607880920409695e-01
1.656532511557028964e-01
1.522638784608901785e-01
1.376765764975793616e-01
1.203331155977716560e-01
1.023902670822114391e-01
8.693720584235758997e-02
7.445018820125348658e-02
6.280763315195436736e-02
5.052524015511888900e-02
3.857383984175322134e-02
2.870727660723110253e-02
2.097942739469943474e-02
1.383287880020622751e-02
6.617411411434570567e-03
7.805840079183612445e-04
-1.902981502449663243e-03
-1.696209207810384090e-03
-7.910084903285929947e-04
-7.825438398924577932e-04
-1.146211651698814116e-03
-4.972772244066780978e-04
1.197934593617111521e-03
2.555344594633912614e-03
3.041385587002398694e-03
4.101502146822699757e-03
7.495866899143943662e-03
1.291349469153296736e-02
1.809577062720396645e-02
2.164201455724967804e-02
2.445967365372997415e-02
2.789171195124162672e-02
3.131908538728256364e-02
3.275312394421175943e-02
3.169373528452323896e-02
2.998057354567423838e-02
2.957134542440192915e-02
3.026446270306692998e-02
3.030386455973643756e-02
2.910149694549313271e-02
2.807619045512671496e-02
2.852355014425056456e-02
2.951190133991787867e-02
2.873429325874560236e-02
2.544076089987679090e-02
2.136786282051811314e-02
1.852968908202173859e-02
1.689246434239088934e-02
1.486844905111905923e-02
1.184946813316428704e-02
9.167161470049534078e-03
8.394012316529031459e-03
9.253238916133499359e-03
9.820505256485423384e-03
8.865478392615477876e-03
7.036339323278295588e-03
5.563195659054664954e-03
4.491536316780508908e-03
2.809642716057270118e-03
2.498560968846041952e-04
-2.038984121694564777e-03
-2.855377790715818431e-03
-2.426463958873636972e-03
-2.033845895966668316e-03
-2.224519064613461605e-03
-2.168362424162961766e-03
-8.959874408023260628e-04
1.235657761479380667e-03
2.745307985289324737e-03
2.766812813091990009e-03
1.890318914374355952e-03
1.214819899841956818e-03
9.813695735104155382e-04
4.115138882336277781e-04
-1.079693993578934030e-03
-3.070873538820684256e-03
-4.701662954017915563e-03
-5.815625249579181588e-03
-7.180473165371015210e-03
-9.379573986764727644e-03
-1.187447901537388995e-02
-1.339624907203093573e-02
-1.327694315846250639e-02
-1.196846892678349317e-02
-1.004418868567524825e-02
-7.538424092512541197e-03
-4.504204959360935678e-03
-1.722425736393362605e-03
-4.414605693754680704e-04
-1.166659603250297383e-03
-2.989681811962657809e-03
-4.349037047436582482e-03
-4.456053400874321335e-03
-3.704619517213930679e-03
-2.644056127795751943e-03
-1.203640630508678866e-03
9.768854043887831295e-04
3.754900469407712604e-03
6.360197394938149618e-03
8.287050086603270360e-03
9.824016277824004773e-03
1.148867302258954615e-02
1.319783558810319612e-02
1.454475834675028612e-02
1.656138962647807356e-02
2.327123840778017039e-02
4.054079727376846964e-02
7.188274368251901247e-02
1.160671134403581106e-01
1.690254085242631765e-01
2.241913477034693514e-01
2.691466847587912770e-01
2.848340377657050393e-01
2.516711193045328421e-01
1.597341175038507477e-01
1.687919572576085381e-02
-1.493806478493255319e-01
-2.994991755808394385e-01
-3.992076858942632533e-01
-4.348230843604123930e-01
-4.131755680130789754e-01
-3.509092857874085425e-01
-2.663097458623962521e-01
-1.760058776808344772e-01
-9.294247756619454515e-02
-2.513685935270895677e-02
2.412143269909705623e-02
5.502926068279839766e-02
7.026759935846210725e-02
7.453730426850987967e-02
7.341086089221043887e-02
7.145573099409074924e-02
7.080378142946480713e-02
7.145098480897832394e-02
7.299441753482313611e-02
7.554511801110919134e-02
7.916118144888073527e-02
8.304797351028420094e-02
8.597148780636476584e-02
8.772629505002549344e-02
8.945828968959751437e-02
9.225211800665650275e-02
9.568192552831700226e-02
9.836121405257491901e-02
1.000135321791002507e-01
1.019437962354600713e-01
1.053281638516574137e-01
1.096543261715138828e-01
1.135558588526028867e-01
1.172868472828198783e-01
1.230669932539131817e-01
1.323537776759404760e-01
1.433808098654679730e-01
1.529455806071134683e-01
1.610717337417306161e-01
1.715995649506933118e-01
1.867924785429103673e-01
2.026497427999989775e-01
2.125531731493912613e-01
2.161181030710110917e-01
2.206052966503284085e-01
2.318335549636986459e-01
2.460968843875138423e-01
2.544099914230273929e-01
2.543392801735860909e-01
2.528551594193771956e-01
2.563980511242596183e-01
2.618405405614998571e-01
2.606124655152132763e-01
2.505978465311536896e-01
2.389794578198705111e-01
2.325145148518413807e-01
2.287356666877642386e-01
2.195901919774596034e-01
2.024097161220900221e-01
1.829166990184508124e-01
1.671694416854261900e-01
1.541728436945117020e-01
1.384715634300837661e-01
1.184758623523619603e-01
9.873274578431107118e-02
8.376468161252809130e-02
7.244503290024073561e-02
6.019606803250993066e-02
4.564582821503626597e-02
3.234853598518516726e-02
2.372713895560435438e-02
1.851672790138664260e-02
1.264209692652912276e-02
4.758589347740815878e-03
-2.282591707899961353e-03
-5.644991734385873539e-03
-6.425418054691683922e-03
-8.058635896275784249e-03
-1.135667264656176068e-02
-1.329001652241931786e-02
-1.129717379164196789e-02
-7.168472649978330224e-03
-4.999545320776371815e-03
-5.777816373722377552e-03
-6.187513082335560632e-03
-3.186496295948554325e-03
1.814185565797404864e-03
4.804567508847445989e-03
4.759462773762962451e-03
5.052548845268151068e-03
8.676877298761181967e-03
1.384441506638045549e-02
1.612841621822808102e-02
1.443494418193289053e-02
1.240331282146658887e-02
1.344612180060394957e-02
1.623324147241428372e-02
1.667131767028998124e-02
1.368007004366147972e-02
1.060174147977982484e-02
1.056242584643979354e-02
1.226414914907542064e-02
1.185238393635984488e-02
8.345906394830848729e-03
4.967670560442200012e-03
4.687594468108763346e-03
6.136116423612114623e-03
5.469203481506090814e-03
1.753769056467707754e-03
-1.743708090085088758e-03
-2.000635751099627546e-03
-2.776557941699675514e-04
-3.559781835349162815e-04
-3.369918798618337652e-03
-6.495108944086891434e-03
-7.024912421767171011e-03
-6.097865082025560879e-03
-7.051285132236490005e-03
-1.053760366173833729e-02
-1.328404633272065039e-02
-1.230243291971602759e-02
-8.932468885169186912e-03
-7.181559033049900176e-03
-8.500300568172386440e-03
-1.033033374875816368e-02
-1.005068921972901430e-02
-8.606014088253649552e-03
-8.971473493956910739e-03
-1.168623855936110068e-02
-1.389702486749547217e-02
-1.323090089457579221e-02
-1.117126453116815132e-02
-1.121868688920749091e-02
-1.415450919139971120e-02
-1.700603759622368316e-02
-1.697461954133974715e-02
-1.507890318754126491e-02
-1.482379634183847439e-02
-1.760986543393294745e-02
-2.114353289223555588e-02
-2.274935962095692155e-02
-2.285815977931199283e-02
-2.389974741063097263e-02
-2.616587600653205725e-02
-2.676457052319947127e-02
-2.336306075871624754e-02
-1.772724400111005960e-02
-1.419324738009239417e-02
-1.480399756293601654e-02
-1.741897031069639112e-02
-1.890390082559667562e-02
-1.891797764903926926e-02
-1.938471091421017922e-02
-2.077642234229207241e-02
-2.085050367687568684e-02
-1.767647378418349402e-02
-1.272255793276003133e-02
-9.452551819699700486e-03
-8.981967397648338292e-03
-8.857850499285280232e-03
-6.630793150538272229e-03
-3.340855428400957283e-03
-2.075633463532233769e-03
-3.361062153292238008e-03
-3.575170500373953120e-03
1.701854808176139766e-03
1.418998895576384367e-02
3.502121120281262434e-02
6.893085324320524787e-02
1.206397059260787552e-01
1.848329675014043771e-01
2.413963478068693602e-01
2.627323191256953905e-01
2.287775198454436720e-01
1.380031856831691606e-01
8.281744397327123197e-03
-1.298735978199818675e-01
-2.457550926772552602e-01
-3.216328061890066925e-01
-3.558794693731756054e-01
-3.550604764535457702e-01
-3.263284490967243157e-01
-2.762926108483604315e-01
-2.124597820024969053e-01
-1.432590567815860971e-01
-7.749574232754594116e-02
-2.388288641309113669e-02
1.167547303636731759e-02
2.983727131637017860e-02
3.716892946136987619e-02
4.051458318485415266e-02
4.224339908055430026e-02
4.147662408173663495e-02
3.900567544821120780e-02
3.853956768313848702e-02
4.255021642923570435e-02
4.874908512490941370e-02
5.252049491635968348e-02
5.257590229001277149e-02
5.217589701409022784e-02
5.440106777442071939e-02
5.791326872296345685e-02
5.896731153900561240e-02
5.697298973164216518e-02
5.560845048982987482e-02
5.795783792194453277e-02
6.237232711276283204e-02
6.478126445733015104e-02
6.446639624964606297e-02
6.515301852461308219e-02
6.990192655040122771e-02
7.671767943414273261e-02
8.123973784723520497e-02
8.333996927241757446e-02
8.811523801647083709e-02
9.942676928505223000e-02
1.143193216316146787e-01
1.263810398988727546e-01
1.343810403388407404e-01
1.438677076084458883e-01
1.590237350533439953e-01
1.756976840156833364e-01
1.858719948711142766e-01
1.884439252751206606e-01
1.908814278553720434e-01
1.990886586580505324e-01
2.091053843617098340e-01
2.120482480438124206e-01
2.060319850203490566e-01
1.984407052677833183e-01
1.958764084184737020e-01
1.955610637174469424e-01
1.894525311207721774e-01
1.754585037708027428e-01
1.600481746426869745e-01
1.494208221818656979e-01
1.417972531603786390e-01
1.306960211269020677e-01
1.142098259739201260e-01
9.728502761415780409e-02
8.475187664929256792e-02
7.518738581060219195e-02
6.344913154404502320e-02
4.801810230419453762e-02
3.288783566991210217e-02
2.210238981290296723e-02
1.484037934294329952e-02
7.168462502084332888e-03
-2.338533616188576136e-03
-1.085121527158541821e-02
-1.537015044895420623e-02
-1.681419429760669382e-02
-1.865407162598797797e-02
-2.209448209489073278e-02
-2.464797169902152585e-02
-2.387141073694354354e-02
-2.102850429316105441e-02
-1.966834972675216009e-02
-2.094157120695447349e-02
-2.219997258060021905e-02
-2.065326812827561476e-02
-1.704407544932329266e-02
-1.440494217901783225e-02
-1.360572971486989635e-02
-1.215274614100878003e-02
-7.931997236852145194e-03
-2.655713993965524988e-03
-1.056264025636743931e-05
-7.486976744644491255e-04
-1.737540044734198208e-03
-2.023938358190757736e-04
2.771276471671219044e-03
4.102664890008905774e-03
3.125762526616476800e-03
2.242945900720355601e-03
3.372157063540714983e-03
5.172299600298413402e-03
4.675739852603860713e-03
1.202065936142193703e-03
-2.919841930045324885e-03
-5.454246494229375575e-03
-6.750018478730496208e-03
-8.530892265086270632e-03
-1.091645181026959510e-02
-1.210071843974952488e-02
-1.103696005315887851e-02
-9.358868321294150361e-03
-9.775239000943097833e-03
-1.281191516806784447e-02
-1.629597428846543683e-02
-1.802556567088844930e-02
-1.814012263359252031e-02
-1.834811419558932122e-02
-1.918471991948580979e-02
-1.934247783268369658e-02
-1.783577218831450262e-02
-1.577014183612784892e-02
-1.513082599640894199e-02
-1.614130132430055542e-02
-1.705198052940359865e-02
-1.651426212876344612e-02
-1.527019764112108602e-02
-1.505981132069236783e-02
-1.628504907639710675e-02
-1.772245223254950708e-02
-1.840997970720587018e-02
-1.906042332961993546e-02
-2.115501941609460035e-02
-2.482207250181180103e-02
-2.846610717629613485e-02
-3.053858593761117624e-02
-3.105936087079022578e-02
-3.095906165442866009e-02
-3.026324389243124913e-02
-2.804105975470352896e-02
-2.424811682811571500e-02
-2.073757693170973082e-02
-1.969225977155010521e-02
-2.114260739014436896e-02
-2.288990313184635639e-02
-2.292779879491009531e-02
-2.138652796048196025e-02
-1.978730345293011617e-02
-1.874566112712269805e-02
-1.730935467760302826e-02
-1.455071705308599861e-02
-1.112362296887713098e-02
-8.608758433558336143e-03
-7.454113804145220956e-03
-6.558549083379397460e-03
-4.956111661941611790e-03
-3.183429397688106177e-03
-2.288803592676330600e-03
-1.283962587977791059e-03
3.939957851964492885e-03
1.838192216214561137e-02
4.407963622524860292e-02
7.991214068212471044e-02
1.246464177744167207e-01
1.753513153324018359e-01
2.215416266801756295e-01
2.440342665560044366e-01
2.225060489254991891e-01
1.470250962122742477e-01
2.536010528569462852e-02
-1.174142616135576411e-01
-2.469933430618080350e-01
-3.352277834605985607e-01
-3.730572101860761824e-01
-3.683298146051133815e-01
-3.338579572853375699e-01
-2.803087098427393675e-01
-2.162596932229227664e-01
-1.494901470773857266e-01
-8.690737214091569240e-02
-3.405986049835034446e-02
5.085433970820063543e-03
2.914055842166694832e-02
4.053631584627286066e-02
4.443417815151851080e-02
4.558597971887363987e-02
4.606893032336303873e-02
4.604884854427723773e-02
4.624773330670806093e-02
4.836580571902793224e-02
5.300976257646600187e-02
5.824343070830852176e-02
6.124318244847884452e-02
6.143069429005333648e-02
6.084810416405123101e-02
6.144571700721249141e-02
6.286762067918370833e-02
6.341939806374367883e-02
6.278558856092109064e-02
6.258058565739740842e-02
6.417360745060143867e-02
6.684916138305221911e-02
6.901311502471144110e-02
7.099372873380183080e-02
7.509613704969395065e-02
8.257212409540257148e-02
9.149475739212620251e-02
9.879479224888221278e-02
1.043286279263351546e-01
1.112160214709813355e-01
1.216689288145261921e-01
1.336420877307809008e-01
1.433583981037220290e-01
1.508221678514202746e-01
1.600250140228256235e-01
1.732659366253388733e-01
1.871330776301508014e-01
1.960032139988442668e-01
1.991083701393602801e-01
2.011640396077448156e-01
2.057309971433189111e-01
2.102107647097598564e-01
2.092282653939586956e-01
2.021357662909256392e-01
1.939423311411172801e-01
1.887336157111496604e-01
1.846269027108955740e-01
1.766482731872019429e-01
1.635068375322902279e-01
1.487873865549891872e-01
1.358193626187048642e-01
1.237185814782867099e-01
1.093598614521636703e-01
9.218899028928842498e-02
7.511857897648557825e-02
6.100257022194890966e-02
4.976898185587322332e-02
3.936607999170071981e-02
2.872815073038018086e-02
1.864922375206759519e-02
1.011633304500650365e-02
2.825646923418134726e-03
-4.233122889321525029e-03
-1.102231636717007635e-02
-1.625251990535697688e-02
-1.902712565521175181e-02
-2.007881026032516669e-02
-2.087252968147443322e-02
-2.175355872362456922e-02
-2.190449118256924954e-02
-2.091127626777933290e-02
-1.965625299527541670e-02
-1.934249331255037674e-02
-1.984223293211499761e-02
-1.978082511750405004e-02
-1.821507082281706436e-02
-1.579631549899139509e-02
-1.405026967032899088e-02
-1.361855717024772205e-02
-1.376457339565052840e-02
-1.351544735413383325e-02
-1.287559312173661152e-02
-1.250954903155028497e-02
-1.240155822308121325e-02
-1.171930140646038065e-02
-9.959127183698110453e-03
-7.816076196891730277e-03
-6.563950593408529599e-03
-6.508384441941364451e-03
-6.772704860684763961e-03
-6.590954312673660831e-03
-6.290734781620122007e-03
-6.666237362413826584e-03
-7.616166140670455054e-03
-8.253453293768184262e-03
-8.217140915470946827e-03
-8.368496811476805464e-03
-1.000364018336430405e-02
-1.336697181046274385e-02
-1.738697575146332108e-02
-2.082511528169517234e-02
-2.338332745654653211e-02
-2.556591724431817036e-02
-2.767793994274860003e-02
-2.949014872696424650e-02
-3.067160309167121790e-02
-3.126722199043913131e-02
-3.166545769354930928e-02
-3.201163153201971867e-02
-3.201024427178755793e-02
-3.135650343089606273e-02
-3.023672447726954982e-02
-2.923660299586984535e-02
-2.864468813554996163e-02
-2.819261702677018644e-02
-2.752643114601366348e-02
-2.683972667637896103e-02
-2.684969009072744883e-02
-2.804484427618655906e-02
-3.034234833116450369e-02
-3.331918801298698607e-02
-3.654478387659189365e-02
-3.983445668778345244e-02
-4.313276584850108536e-02
-4.617936936101515316e-02
-4.837462254586551158e-02
-4.913460041962526559e-02
-4.830865990932693005e-02
-4.612393532883717756e-02
-4.303750964260274342e-02
-3.973969891230792056e-02
-3.718350700808435022e-02
-3.631980980872310388e-02
-3.747235516740494293e-02
-4.001319040190687293e-02
-4.260590265619747241e-02
-4.392172964387756895e-02
-4.343711613604851751e-02
-4.158218185010337242e-02
-3.917962580632604330e-02
-3.677214155220377007e-02
-3.451495848365319918e-02
-3.245308394122034534e-02
-3.060464671538072612e-02
-2.889752471592786642e-02
-2.710163339898234713e-02
-2.499651097695848589e-02
-2.251235136320492436e-02
-1.918098409163982582e-02
-1.306956456378268600e-02
-5.925181048482275337e-04
2.186170618830438062e-02
5.682511486119134342e-02
1.054214335404877190e-01
1.642617721270506759e-01
2.212734450008128628e-01
2.555613812679818353e-01
2.436359060455599856e-01
1.704941352965972379e-01
3.937170403402896757e-02
-1.247460596741516436e-01
-2.812489469924976393e-01
-3.926331301046467326e-01
-4.435953128260831657e-01
-4.411695402080374473e-01
-4.003542291176797607e-01
-3.343900752918291253e-01
-2.544547970405754977e-01
-1.715333981593958612e-01
-9.582227204046615820e-02
-3.466144782873581409e-02
8.449561273213425372e-03
3.370063635154417481e-02
4.450951977771134410e-02
4.625561968958388781e-02
4.430318428260019564e-02
4.234014077868455267e-02
4.205723880790757097e-02
4.394106144756425303e-02
4.785711240698094227e-02
5.315983076443901029e-02
5.864694080250119207e-02
6.306296244055424605e-02
6.614345005401339739e-02
6.864903900277072313e-02
7.130949646532544484e-02
7.390897513845508249e-02
7.565254575053521890e-02
7.658563011876151627e-02
7.791703550274532708e-02
8.069108250860594633e-02
8.453201540705211625e-02
8.828296483755902757e-02
9.185724707507791909e-02
9.650233922025004685e-02
1.030892590541021836e-01
1.106731582392778690e-01
1.177283620777244133e-01
1.248553785863767279e-01
1.346236707454140924e-01
1.482506737149969223e-01
1.632830600625206074e-01
1.761521586308331389e-01
1.872082155524903979e-01
2.006103288443812915e-01
2.180401279776562895e-01
2.342395127544958655e-01
2.418554101480862584e-01
2.407024092137370619e-01
2.382303551222377802e-01
2.400418053504040639e-01
2.428540886491200868e-01
2.393763903565003515e-01
2.288814241094090929e-01
2.184420842506240856e-01
2.134227123302454010e-01
2.104482293384147273e-01
2.020803740607865495e-01
1.867660316773701867e-01
1.703175815883534172e-01
1.577627563854129833e-01
1.470308309186695306e-01
1.324216586283878394e-01
1.127093309912704511e-01
9.267406027194677320e-02
7.693413858167104380e-02
6.484379042549703875e-02
5.251454322500394289e-02
3.864125807828494574e-02
2.605498006388860810e-02
1.746089664726686863e-02
1.161468779604485357e-02
5.043166552295821892e-03
-3.169700346811896163e-03
-1.024478639057485596e-02
-1.354727275160012845e-02
-1.403838262850821972e-02
-1.481649873792788979e-02
-1.695650721317139287e-02
-1.853357864292570767e-02
-1.785866122669931694e-02
-1.621276285186361993e-02
-1.621008408184593935e-02
-1.798677744670441891e-02
-1.874757833744760543e-02
-1.645162803082784314e-02
-1.269595523211905497e-02
-1.073102266182405368e-02
-1.111543083047787650e-02
-1.109283097313217697e-02
-8.495142117304635421e-03
-4.889404515741491153e-03
-3.600173904150724691e-03
-5.106736105164419448e-03
-6.360153699635467950e-03
-4.949549866774899387e-03
-2.408484894344045668e-03
-2.212963078419435958e-03
-5.076888786749320093e-03
-8.093598975121532590e-03
-8.812827550819336830e-03
-8.492161759027873347e-03
-1.004286929910052500e-02
-1.366898819136343202e-02
-1.649731619973232588e-02
-1.646171944086700228e-02
-1.503912252217762258e-02
-1.527004068976955259e-02
-1.766424893366201621e-02
-1.963899881106120210e-02
-1.916842988341427301e-02
-1.759811826551815894e-02
-1.784926112318881847e-02
-2.040358709208592303e-02
-2.259562618754365482e-02
-2.213198545042700804e-02
-2.009257195271212798e-02
-1.937873253918659389e-02
-2.069907986934986510e-02
-2.170468913295751923e-02
-2.035600983550896886e-02
-1.784491706542148254e-02
-1.704199126119913116e-02
-1.856870588734705479e-02
-2.008386317554135964e-02
-1.967666655493205408e-02
-1.862976253326557863e-02
-1.982864650352693381e-02
-2.392690769569864179e-02
-2.847647969564887083e-02
-3.105670203642947255e-02
-3.213333335863336609e-02
-3.390196308780471512e-02
-3.686357323793063023e-02
-3.900127576720199135e-02
-3.851149919721377074e-02
-3.622108741166159968e-02
-3.438461025399802695e-02
-3.356007500147120681e-02
-3.217504611251991581e-02
-2.937419921729127539e-02
-2.691924631846366947e-02
-2.725136943179701579e-02
-3.012712598683416065e-02
-3.241812017892690967e-02
-3.153491534827893017e-02
-2.821793913376701921e-02
-2.515468665551552283e-02
-2.336201843828187782e-02
-2.130090202696098903e-02
-1.764519919935107067e-02
-1.373339411078931122e-02
-1.214990185292500954e-02
-1.313562119718434534e-02
-1.398404659698112076e-02
-1.243454758799680815e-02
-9.403261712556839486e-03
-7.003521896473401120e-03
-3.811331388359158467e-03
6.681991141294481296e-03
3.108388510432293084e-02
6.897513891300349753e-02
1.136638293674603062e-01
1.597751658444888645e-01
2.036016245661741997e-01
2.352708304318333332e-01
2.369630270379769477e-01
1.912556953493047829e-01
9.132892155463920303e-02
-5.240468614109462103e-02
-2.111481762594624723e-01
-3.459122355378017044e-01
-4.250408511833978498e-01
-4.387620534669547934e-01
-3.981324303995674718e-01
-3.238410715394178241e-01
-2.370899247592503922e-01
-1.544631870245395389e-01
-8.505958441461937414e-02
-3.109436573898926442e-02
8.121378849405256478e-03
3.269986568411523825e-02
4.315164042609440781e-02
4.360915814218804809e-02
4.126069787920357695e-02
4.142127464924464514e-02
4.400595941470022976e-02
4.597179954603618918e-02
4.656402609836640671e-02
4.824371158918257241e-02
5.261386490975272778e-02
5.742818186853616141e-02
5.915108325887394325e-02
5.783110391532158417e-02
5.731399642705543168e-02
6.029061894387616888e-02
6.468346998462337627e-02
6.637171967593200050e-02
6.484353310702586914e-02
6.394243251083332746e-02
6.674354159145955145e-02
7.149417892020867860e-02
7.434951355088220692e-02
7.528588452146542376e-02
7.853002019554738977e-02
8.676483466656483012e-02
9.703565341771458463e-02
1.044932142248616580e-01
1.093543245070551367e-01
1.169179964963276697e-01
1.301780948005166194e-01
1.448866128239537088e-01
1.545631155362428288e-01
1.594423004512091901e-01
1.663673722746865646e-01
1.793390209635500332e-01
1.933299856917828352e-01
2.001579910074757496e-01
1.991123263247646380e-01
1.974266458335851571e-01
2.001623650452876713e-01
2.032627889346055317e-01
1.991642195549887251e-01
1.875307166498113298e-01
1.758396589905893148e-01
1.693687932362522297e-01
1.644702910052906752e-01
1.537579496012382307e-01
1.358984520253995187e-01
1.166884456760731437e-01
1.011562875408570650e-01
8.789017277750003909e-02
7.228405132686319123e-02
5.348817114157536357e-02
3.548875636784405707e-02
2.180696748678472713e-02
1.147880661106163297e-02
1.231449383925581342e-03
-9.567079326362755431e-03
-1.822483466683454817e-02
-2.284524695422061880e-02
-2.519713959283272769e-02
-2.847570197273685197e-02
-3.306568856191566264e-02
-3.615437863593187751e-02
-3.567867366209277746e-02
-3.330292352109905096e-02
-3.238713371705170818e-02
-3.364685605545388036e-02
-3.448245137654350201e-02
-3.272751058087672998e-02
-2.970024829657353163e-02
-2.837877954607105971e-02
-2.918896309621327526e-02
-2.945564291369730248e-02
-2.716504784568244540e-02
-2.382756588060310973e-02
-2.246201571182728646e-02
-2.328553263757775910e-02
-2.324605813481142938e-02
-2.010988107355904039e-02
-1.554586849664721382e-02
-1.291486610787842548e-02
-1.271673219086002365e-02
-1.216891158145196050e-02
-9.351353755064684137e-03
-6.175433663324431111e-03
-6.008620913594962809e-03
-9.013063473222192312e-03
-1.182541377753142109e-02
-1.196628458227261965e-02
-1.093540847008211275e-02
-1.194374918852529610e-02
-1.547288843423438517e-02
-1.880080033725845326e-02
-1.981153164818359735e-02
-1.978756842484108783e-02
-2.145851521456486680e-02
-2.500384348127706810e-02
-2.772818083150936988e-02
-2.773748683605080367e-02
-2.651390498000571680e-02
-2.694157034690814606e-02
-2.940566379707788836e-02
-3.132605070958119353e-02
-3.065919231840493614e-02
-2.863835560495513882e-02
-2.805944548100680613e-02
-2.942102763142157365e-02
-3.038085799565231823e-02
-2.922272918948329301e-02
-2.750335700901559988e-02
-2.811048921071792814e-02
-3.131329558984534411e-02
-3.440349181290508485e-02
-3.525485377375957990e-02
-3.489548378549538893e-02
-3.578768774801102670e-02
-3.827080174286912745e-02
-4.012177548603171329e-02
-3.963288054535542976e-02
-3.789328111444204006e-02
-3.715131804886154937e-02
-3.752192299476210524e-02
-3.684042554355136667e-02
-3.389080154730354788e-02
-3.052006173592355584e-02
-2.962682908838976462e-02
-3.151090284174473677e-02
-3.346651261169397013e-02
-3.311455508066774023e-02
-3.116618010095342436e-02
-3.002378508395870879e-02
-3.016701881449816713e-02
-2.952095422287280557e-02
-2.658349496487416933e-02
-2.281913261617277144e-02
-2.083513939186968159e-02
-2.073513572938902316e-02
-1.992940488066373764e-02
-1.674927018963478370e-02
-1.279942440883331985e-02
-1.023952246568173713e-02
-6.769103639971294981e-03
4.991601576666136741e-03
3.114948563538808002e-02
6.931908521579419058e-02
1.105803529118775247e-01
1.479207924488150638e-01
1.769324852640832835e-01
1.893176937551379335e-01
1.728173009094707280e-01
1.190412151590608258e-01
3.007890337131814001e-02
-8.019092404991842726e-02
-1.893218585453673997e-01
-2.739388172560196510e-01
-3.196291814280687316e-01
-3.257658101700611208e-01
-3.010932368347893351e-01
-2.566888144769331470e-01
-2.028869792188449650e-01
-1.481329178446269268e-01
-9.757533485913033600e-02
-5.331839004481881555e-02
-1.693130019737290951e-02
8.801984016034762603e-03
2.194646200336480141e-02
2.491948445879233962e-02
2.380175725494911368e-02
2.343747349674910399e-02
2.416664206185692790e-02
2.404627058576875448e-02
2.325227561104558499e-02
2.444448464579204380e-02
2.888150910882858122e-02
3.392557535032683647e-02
3.587109256980994254e-02
3.464949957240204270e-02
3.380291579203285879e-02
3.579850045526944413e-02
3.893015438086461222e-02
3.995294523309930734e-02
3.891571318135647606e-02
3.929117654801315279e-02
4.323844179887470496e-02
4.848436282871542574e-02
5.131500308239783648e-02
5.177633270827927681e-02
5.362143307233636219e-02
5.911002876231438719e-02
6.579187100064495808e-02
7.003522744235773922e-02
7.283169574248926637e-02
7.929732190245343537e-02
9.193909414656993573e-02
1.065102822969862806e-01
1.168427864671841288e-01
1.228825554347816457e-01
1.304204467981470716e-01
1.426577571212714890e-01
1.549598475297113420e-01
1.603514478706822843e-01
1.587335428227319711e-01
1.567494762060840097e-01
1.587626816480868508e-01
1.612068156638860328e-01
1.577823999730319782e-01
1.484396617264727436e-01
1.394312660967046702e-01
1.348852317461621542e-01
1.315032842567440408e-01
1.231576851935222983e-01
1.090853040827790277e-01
9.440506323190138438e-02
8.306963073945203280e-02
7.323216043014861565e-02
6.077281484689620039e-02
4.566183281611067846e-02
3.211858883488843963e-02
2.299113332122777048e-02
1.635982050898238810e-02
8.518931373966073806e-03
-1.026041220861424741e-03
-9.392290930986830350e-03
-1.464086894578623885e-02
-1.843558286908179855e-02
-2.361004758716724744e-02
-3.011035917510815688e-02
-3.503666152503201459e-02
-3.651458413636148731e-02
-3.613419356700559720e-02
-3.678273129066730873e-02
-3.877320897875200650e-02
-3.967670573966408654e-02
-3.795593907687087876e-02
-3.535972033244472179e-02
-3.476196926253652397e-02
-3.627066099630019136e-02
-3.703359620622159731e-02
-3.501540380526411284e-02
-3.169671235804360360e-02
-2.991347910425263754e-02
-2.974932876311720334e-02
-2.848608944738582199e-02
-2.458023134854955133e-02
-2.009081719830459883e-02
-1.812267853742804274e-02
-1.862578043475979564e-02
-1.853431734364952357e-02
-1.603803432006587620e-02
-1.317578375661306381e-02
-1.320587082514536499e-02
-1.619910165200785443e-02
-1.897699354287697010e-02
-1.934961904877666866e-02
-1.885343342276018380e-02
-2.029435123367786739e-02
-2.356480503565686058e-02
-2.572433984466661328e-02
-2.499324260799985070e-02
-2.319017695972638154e-02
-2.334502037471226227e-02
-2.557817811003366276e-02
-2.700871053147500811e-02
-2.572788627387727692e-02
-2.341923783030407102e-02
-2.307375637648200611e-02
-2.488473075235585891e-02
-2.618801917373292723e-02
-2.533000250558988670e-02
-2.399839149559894469e-02
-2.489333346392328533e-02
-2.792092947751161069e-02
-3.029201624868705159e-02
-3.030395030268705908e-02
-2.957003487669776845e-02
-3.065039187839396426e-02
-3.333705933103031649e-02
-3.486184766175724759e-02
-3.362869447432315084e-02
-3.139773803640912020e-02
-3.091035401479002090e-02
-3.208340852692125045e-02
-3.226974735954300788e-02
-3.017986907093625840e-02
-2.789654169674174802e-02
-2.810161998767582783e-02
-3.023691076613108791e-02
-3.098798225102060433e-02
-2.842477995896267734e-02
-2.442308804399572625e-02
-2.222247882355828444e-02
-2.221911546591775685e-02
-2.175171935237749099e-02
-1.907727181767803620e-02
-1.597785553365988279e-02
-1.532819885201775270e-02
-1.698938465477503601e-02
-1.788937756479382774e-02
-1.603617867832889815e-02
-1.289501152116689746e-02
-1.050791984162271694e-02
-6.369619838259908511e-03
7.161087910082547525e-03
3.621435164992839462e-02
7.786774995000668442e-02
1.224075760819823139e-01
1.622683505629984591e-01
1.923767247200943997e-01
2.032251587574563645e-01
1.814579057722653099e-01
1.185437687923731054e-01
1.747602181591302595e-02
-1.060740916934448941e-01
-2.271962827861252199e-01
-3.199256615258859737e-01
-3.678456381479945358e-01
-3.695708097055145358e-01
-3.348557138629369989e-01
-2.775852959703183909e-01
-2.116131952347587719e-01
-1.478106450044444353e-01
-9.181654007587926325e-02
-4.505446015363441525e-02
-8.387977116856026177e-03
1.584044252638446698e-02
2.635726447892430824e-02
2.666519888401875163e-02
2.385133906395423692e-02
2.310271919534544888e-02
2.433909290960667784e-02
2.501628078127429711e-02
2.521141515084096563e-02
2.779210227915973955e-02
3.381867788549811765e-02
4.000800837413492211e-02
4.226117901898583662e-02
4.081967994141010025e-02
3.982242867247096085e-02
4.184880319858591546e-02
4.473822505014043993e-02
4.502928674947129228e-02
4.334795201452658342e-02
4.398285403244885788e-02
4.922070558128637668e-02
5.611222162648162037e-02
6.034764205538077630e-02
6.228558204285319228e-02
6.658117478506855869e-02
7.582191665906383438e-02
8.669409975242792221e-02
9.442615907423961008e-02
9.988192993357028482e-02
1.087669104227300398e-01
1.235119666482912271e-01
1.388157152690526197e-01
1.479320848270301303e-01
1.519350862611910380e-01
1.584232686805755741e-01
1.710220958345342324e-01
1.837757792439417837e-01
1.885377585561274494e-01
1.858460066625844953e-01
1.838389547825590165e-01
1.870150259035763818e-01
1.901927786940388887e-01
1.856373393401553051e-01
1.737083824751510519e-01
1.621899267049229099e-01
1.558785957578079084e-01
1.507021324149563357e-01
1.397892521125733145e-01
1.229261723759438873e-01
1.063554101255783368e-01
9.427296152948590191e-02
8.386341098284859352e-02
6.985525069756859384e-02
5.202969730407221161e-02
3.531260719193896058e-02
2.311880124350850635e-02
1.333115797283846576e-02
1.869250787590454044e-03
-1.136518805104283145e-02
-2.244270296041490226e-02
-2.876872701531097212e-02
-3.234690174674428875e-02
-3.686215395288778424e-02
-4.274195625526848452e-02
-4.699785722500180590e-02
-4.766828873959467333e-02
-4.665009698858118420e-02
-4.709852908849319897e-02
-4.896006767671441662e-02
-4.906325962758573134e-02
-4.565931465938827954e-02
-4.119935221229420463e-02
-3.940861193489622605e-02
-4.048677958169809993e-02
-4.116135046399893582e-02
-3.931854726335193284e-02
-3.686578787760780990e-02
-3.696789666187313278e-02
-3.942571310974336829e-02
-4.081348492501107872e-02
-3.908810225314889031e-02
-3.636341825976827091e-02
-3.604299313682821776e-02
-3.811890111728030717e-02
-3.930701753483718808e-02
-3.770642965867879171e-02
-3.555981458940711548e-02
-3.636000104191187965e-02
-4.009899220228463346e-02
-4.324928228142410624e-02
-4.344161768650722788e-02
-4.246606428369734815e-02
-4.357015263207180550e-02
-4.690954979336963565e-02
-4.955733491966574089e-02
-4.964791726361443558e-02
-4.888627127966402308e-02
-5.016008762513903679e-02
-5.349617641821195063e-02
-5.601662028651968606e-02
-5.583442166756797526e-02
-5.449658996804167960e-02
-5.471571419243760614e-02
-5.665629026284117742e-02
-5.804314519455144872e-02
-5.761256643132251637e-02
-5.702656685128843633e-02
-5.869558625344679925e-02
-6.241903253829337445e-02
-6.550386265647059614e-02
-6.616607235429192158e-02
-6.573079657817919308e-02
-6.675052485573125527e-02
-6.948593193367794130e-02
-7.160453230888759457e-02
-7.139682091180490908e-02
-6.995442616362718136e-02
-6.932641577648333830e-02
-6.946231929133285521e-02
-6.848714659425049478e-02
-6.578429083360964880e-02
-6.348451769670435119e-02
-6.403824883281147851e-02
-6.686371642163987938e-02
-6.875600865604954148e-02
-6.762762206300430845e-02
-6.474931572971326377e-02
-6.266964666594951328e-02
-6.168917707718740706e-02
-5.976089793688856705e-02
-5.572687976956346156e-02
-5.132964994905647726e-02
-4.921287991162826003e-02
-4.953645850301576642e-02
-4.987657140012778656e-02
-4.848423295348246870e-02
-4.633559695858486399e-02
-4.471041339541143023e-02
-4.078174843531048865e-02
-2.709027182448147525e-02
2.469278657687055956e-03
4.574683898982211117e-02
9.436517145813184959e-02
1.415585818361019821e-01
1.817323184057773322e-01
2.034528057434255299e-01
1.898407724510769168e-01
1.271688077919392035e-01
1.323584678553566332e-02
-1.376157645370923444e-01
-2.946159461972389093e-01
-4.200011948958357055e-01
-4.861877989853904403e-01
-4.878421643863088408e-01
-4.385974144830033228e-01
-3.595947910933526281e-01
-2.710991093612901692e-01
-1.882757645175912598e-01
-1.192785986679105736e-01
-6.621716955704037844e-02
-2.857715956929890444e-02
-5.811307279972796613e-03
3.734994932203708484e-03
5.034033777547158861e-03
4.966003571014343532e-03
7.813643525603285178e-03
1.275824669694178987e-02
1.670163482535540200e-02
1.909523391430766742e-02
2.236514822478626041e-02
2.781897005188022076e-02
3.314825460896923814e-02
3.538472229679211906e-02
3.535448562008026985e-02
3.698557692087266202e-02
4.216226223005974105e-02
4.804263039566631505e-02
5.075368534477343874e-02
5.075624589057020630e-02
5.231259867147323300e-02
5.776011204990843390e-02
6.437976397020749031e-02
6.832854829587847734e-02
7.041253486863807698e-02
7.539135860779852538e-02
8.555199678182025258e-02
9.719494188100955001e-02
1.055377694291090851e-01
1.118259614928431012e-01
1.220872702058402037e-01
1.386954673683984118e-01
1.560203022854168564e-01
1.670463847022052861e-01
1.728122806487666918e-01
1.809364432491801233e-01
1.948794413463471320e-01
2.084827344463004439e-01
2.137105074423423234e-01
2.114698344028121124e-01
2.101517303041502693e-01
2.141919292715883660e-01
2.181187404651623307e-01
2.139617187703798662e-01
2.020432883570760785e-01
1.901636835940667680e-01
1.831242833894255462e-01
1.769412718625422709e-01
1.649287158344415194e-01
1.470359803111701835e-01
1.294466660942941716e-01
1.160202783628587753e-01
1.036747551188931665e-01
8.730088474640294860e-02
6.707981903456702866e-02
4.814582486852699017e-02
3.388762989203836923e-02
2.225420751352293752e-02
9.415045840214925771e-03
-4.684974545310614108e-03
-1.651537365131758653e-02
-2.398130937075665728e-02
-2.916705633717017396e-02
-3.533346626579929317e-02
-4.242590138537638556e-02
-4.732155951673969185e-02
-4.824623599487964931e-02
-4.724027338460960734e-02
-4.731613687147140368e-02
-4.830306186706291582e-02
-4.734262999750468714e-02
-4.326295300009036504e-02
-3.876861206313692021e-02
-3.720550737141194858e-02
-3.813250175575090550e-02
-3.797768920187238884e-02
-3.484126727945975610e-02
-3.100560025101722211e-02
-2.983431677259545250e-02
-3.126996206334200362e-02
-3.218909973426365562e-02
-3.085508007188618798e-02
-2.933813943661816442e-02
-3.063309755116390420e-02
-3.435068274081461148e-02
-3.710746154939620345e-02
-3.697021068292372092e-02
-3.590153886640846947e-02
-3.706686442079880350e-02
-4.060637657127921796e-02
-4.358942297194056542e-02
-4.402280150877627141e-02
-4.342747740626432679e-02
-4.447651840272788537e-02
-4.698098726978276740e-02
-4.806143899892827143e-02
-4.624275502473046418e-02
-4.371564911392389341e-02
-4.354749568746128785e-02
-4.569065181421975291e-02
-4.736895582205111893e-02
-4.694864415911421257e-02
-4.600980514053008147e-02
-4.706306105388801536e-02
-5.000230735365524676e-02
-5.221973313518703946e-02
-5.214462499847002941e-02
-5.134359543263728592e-02
-5.237403980897577249e-02
-5.534243774968724411e-02
-5.797266379479664583e-02
-5.885664829599575321e-02
-5.928615936329766772e-02
-6.117649712014535529e-02
-6.396928854379306528e-02
-6.505199050338653088e-02
-6.316828445882821663e-02
-6.009334188981493852e-02
-5.834292549792232524e-02
-5.814068655799950469e-02
-5.777904582053162985e-02
-5.651132218304835697e-02
-5.583015775281517656e-02
-5.732236956486030932e-02
-5.999709593133781271e-02
-6.102693233893082686e-02
-5.915245770159498900e-02
-5.628050164823800855e-02
-5.502701583653410444e-02
-5.540348005041877133e-02
-5.510976169531475732e-02
-5.278852913731929553e-02
-4.979656557693012964e-02
-4.818809427365969289e-02
-4.774999757894647645e-02
-4.631383013256476500e-02
-4.282770403401384152e-02
-3.868053952987574734e-02
-3.445900878710191767e-02
-2.532547535572684388e-02
-1.886509865526686536e-03
4.117055214055286017e-02
9.709635246057060631e-02
1.512656413732081928e-01
1.916717683420905982e-01
2.095552156626058760e-01
1.944756670568504597e-01
1.374520945518276083e-01
3.731743131783519379e-02
-9.736350304833744917e-02
-2.474762095814440344e-01
-3.841979059925259565e-01
-4.766745979673219225e-01
-5.052561325269822046e-01
-4.706636207371848180e-01
-3.909740793738495368e-01
-2.911960679882498182e-01
-1.942235776128245495e-01
-1.149542046125623662e-01
-5.803897282512412992e-02
-2.065538927659119062e-02
1.921608696679774630e-03
1.285136056681498995e-02
1.485008384160324546e-02
1.265604204365718133e-02
1.192130260508199313e-02
1.522837480911939934e-02
2.045546977372757202e-02
2.417009859047659914e-02
2.611574144231215699e-02
2.901972005451779885e-02
3.426705711643312363e-02
3.937043649324995648e-02
4.094951828519746012e-02
3.933141485665458265e-02
3.815935659274832109e-02
3.961480943444724984e-02
4.187642402675881281e-02
4.233518799225077789e-02
4.201310967523906592e-02
4.463816411413284307e-02
5.152947043473656702e-02
5.929140685937964866e-02
6.398007647132900044e-02
6.653466111315811671e-02
7.174252470008712912e-02
8.185273669353607118e-02
9.338949168230084585e-02
1.020800773845277482e-01
1.093755818353219500e-01
1.208213704949651079e-01
1.380730827539182193e-01
1.553274348732828491e-01
1.660505266322852003e-01
1.716064817762274763e-01
1.792276669801696753e-01
1.917619745295147116e-01
2.029633568690301648e-01
2.052427191638163673e-01
1.998656316070203109e-01
1.952105534451415159e-01
1.957442773333555597e-01
1.966444317123332564e-01
1.910290661188307204e-01
1.796367894135647569e-01
1.693830948762271860e-01
1.636621632779449720e-01
1.577287604931124076e-01
1.449322817311708422e-01
1.253117700191550554e-01
1.049754350647426893e-01
8.819778966846779367e-02
7.317307894058612538e-02
5.613320629425736646e-02
3.746207913709055648e-02
2.134671518452520983e-02
1.022266908403595895e-02
1.820485599199860027e-03
-7.590126767758893778e-03
-1.836550035179951995e-02
-2.760279081936082429e-02
-3.348505000418782601e-02
-3.767888354265984396e-02
-4.274912567413362979e-02
-4.846130593842620793e-02
-5.223399542957336827e-02
-5.282250527249521960e-02
-5.210331718623138764e-02
-5.252180746813736589e-02
-5.369066523892473269e-02
-5.301911870891368866e-02
-4.946425116132514149e-02
-4.526208673181277703e-02
-4.318751012082114316e-02
-4.297954975449159998e-02
-4.192562047074654963e-02
-3.871838858452358867e-02
-3.535673480883882308e-02
-3.440309223588216420e-02
-3.527680934875775803e-02
-3.490997658341532528e-02
-3.182330674403305998e-02
-2.813230604864899731e-02
-2.679439931260324537e-02
-2.774242882296426571e-02
-2.825610121447820478e-02
-2.692312583048055152e-02
-2.571736176514209660e-02
-2.726616352031304563e-02
-3.101796892498420721e-02
-3.374432406188709876e-02
-3.359267836822082964e-02
-3.225838035913573126e-02
-3.246569548392173182e-02
-3.427621661573711231e-02
-3.536688389127733145e-02
-3.458231994164391587e-02
-3.380399191198171782e-02
-3.553411072321770170e-02
-3.936973830724064399e-02
-4.235766829069297079e-02
-4.272992850841543511e-02
-4.196369951121192710e-02
-4.248020623484544123e-02
-4.427448159523646870e-02
-4.517351637201479087e-02
-4.407042821245132913e-02
-4.271246278572242427e-02
-4.359843652150012516e-02
-4.664889503193139775e-02
-4.931337905634959606e-02
-4.994219716182089763e-02
-4.974077694420743490e-02
-5.065112660962918512e-02
-5.221140463675638665e-02
-5.203959152785021802e-02
-4.931818631018586307e-02
-4.645975678144353971e-02
-4.651498935782026611e-02
-4.948161119987105894e-02
-5.229127236090706787e-02
-5.242148112772922197e-02
-5.051595555525080494e-02
-4.882501472861711100e-02
-4.794352740115344347e-02
-4.648368077821259103e-02
-4.375168639771351287e-02
-4.135944583635653427e-02
-4.120976912657152436e-02
-4.252387656214783040e-02
-4.239964801011467110e-02
-3.940438348156556636e-02
-3.540733442625741689e-02
-3.310716547032897805e-02
-3.233782268283726113e-02
-2.974585134847736179e-02
-2.199189560652251019e-02
-7.651853739025646362e-03
1.574592640682945244e-02
5.354531880437261165e-02
1.075113248617351747e-01
1.672021354047949493e-01
2.098194322126245848e-01
2.105321898227268951e-01
1.562178859183024349e-01
5.285242898015962698e-02
-7.659232097228281522e-02
-2.012194531078893844e-01
-2.956101526579978378e-01
-3.500393193894543176e-01
-3.688050362249606362e-01
-3.604159858206145706e-01
-3.309553687161738145e-01
-2.845644731447208309e-01
-2.263140499465262079e-01
-1.630046086811582917e-01
-1.025605578901024328e-01
-5.290646788738373463e-02
-1.900724500653541704e-02
-5.990955691774491054e-05
9.053077575176884939e-03
1.306148172530260942e-02
1.356608245357288078e-02
1.093908226236055270e-02
7.435058402074493089e-03
6.563766517379457377e-03
9.544856851112171192e-03
1.387594343262164853e-02
1.636138309814347269e-02
1.689573428654515819e-02
1.798297832223320902e-02
2.089020527780684200e-02
2.369829135741945147e-02
2.401202359923661211e-02
2.269285500182728621e-02
2.310453469105978874e-02
2.671974053771865310e-02
3.106258227135960670e-02
3.303526141353414769e-02
3.332235087233105519e-02
3.564591282464259214e-02
4.173425910081890455e-02
4.887253953432303677e-02
5.383868796668994650e-02
5.788301639060988713e-02
6.528397453665055195e-02
7.725807811709090034e-02
8.958301012830557908e-02
9.786323960642777375e-02
1.036636291024100875e-01
1.124924656404558548e-01
1.259593648109195441e-01
1.385992575541758476e-01
1.443946134651340196e-01
1.445992030234768133e-01
1.456893431377875303e-01
1.504092151141515343e-01
1.540506191864747243e-01
1.510264768371458732e-01
1.428001389044068759e-01
1.359336305750432072e-01
1.333467550297398607e-01
1.306508133965847418e-01
1.221482290324947817e-01
1.083286895786571696e-01
9.477862384399347861e-02
8.483631059932184026e-02
7.605353633921263512e-02
6.456017341309384927e-02
5.091220859792325304e-02
3.925731903950326757e-02
3.155591022286048652e-02
2.503604049666757758e-02
1.605754591760309019e-02
4.888101054057181205e-03
-4.996063557033997293e-03
-1.152575476137976396e-02
-1.630872579730693883e-02
-2.190351272141999317e-02
-2.803873886184721220e-02
-3.200928224253576926e-02
-3.247741505237140835e-02
-3.145663713604340828e-02
-3.169764630029950347e-02
-3.303471024949998502e-02
-3.293123896437992471e-02
-3.036568094500798065e-02
-2.763804037151332271e-02
-2.749424919558435265e-02
-2.943341755307830876e-02
-3.041562705205165529e-02
-2.894355627178263335e-02
-2.696555386811830268e-02
-2.695472670328649678e-02
-2.820777283736795871e-02
-2.770150585315928060e-02
-2.426044220710726895e-02
-2.032023210050533379e-02
-1.878252946412319047e-02
-1.920455081322713919e-02
-1.871483218650882296e-02
-1.621743124906005473e-02
-1.403308300082052595e-02
-1.468263703950890842e-02
-1.718013012251376481e-02
-1.811304243811950876e-02
-1.609054904750067960e-02
-1.363062997344201277e-02
-1.389642006227251314e-02
-1.664662606820031809e-02
-1.893679079212630401e-02
-1.929340389584514870e-02
-1.958569845594855530e-02
-2.213311579112016425e-02
-2.613146768073158765e-02
-2.854888928539606185e-02
-2.820217834556619507e-02
-2.741512499532856861e-02
-2.892573895885990065e-02
-3.219232092045638816e-02
-3.422493999932239850e-02
-3.361613751661066130e-02
-3.237038630064505151e-02
-3.327477682803860193e-02
-3.632209777338678280e-02
-3.897681110426849671e-02
-3.974846668309067743e-02
-4.016926452075939014e-02
-4.255138939127292574e-02
-4.668172039070296597e-02
-5.004298569641635330e-02
-5.107023045168293529e-02
-5.087833833911836745e-02
-5.113383728546598561e-02
-5.134432068959840501e-02
-4.968832004055909191e-02
-4.606873117053303379e-02
-4.296345741421092601e-02
-4.265885373092248578e-02
-4.435915137312976264e-02
-4.510770549018175424e-02
-4.340328041631530409e-02
-4.091656761867659697e-02
-4.009066908257336026e-02
-4.084309596650284591e-02
-4.088375047506256910e-02
-3.899449572001112418e-02
-3.669819987658462512e-02
-3.611221734288212748e-02
-3.700694932249241897e-02
-3.717747049059819120e-02
-3.552215648736167797e-02
-3.351310350197145294e-02
-3.270476934631975918e-02
-3.107025549485142868e-02
-2.287582297642548612e-02
-3.200637089929167511e-03
2.790883770690055776e-02
6.766815063776485117e-02
1.145982630233934041e-01
1.650977800997072142e-01
2.063527098932677606e-01
2.169599840175741035e-01
1.775208908197704882e-01
8.282595324560337868e-02
-5.303016970056148582e-02
-2.000754270695533910e-01
-3.234367288472242419e-01
-3.991141955558304977e-01
-4.227956736658121661e-01
-4.039831464076849565e-01
-3.557298726698594482e-01
-2.904296673127315098e-01
-2.190934144465996325e-01
-1.502291356806774170e-01
-8.953896553218515519e-02
-4.129393084646765244e-02
-8.904618364695360277e-03
7.218181189480435411e-03
1.157169757237735963e-02
1.126945726492505073e-02
1.114263666136311448e-02
1.160251217768766552e-02
1.145253055597528213e-02
1.156752965151809642e-02
1.432529025905349140e-02
1.995354699738204063e-02
2.538897519128426039e-02
2.783064877847628293e-02
2.831205452969269565e-02
3.013107400480954934e-02
3.425350180252832721e-02
3.792545967399642282e-02
3.845843217964607652e-02
3.707744707790706917e-02
3.746045811869765096e-02
4.098000898806845871e-02
4.503755351411840857e-02
4.699237428575188391e-02
4.839767726009609750e-02
5.331663058594662830e-02
6.278538473245642848e-02
7.289604248859282709e-02
7.976310676046899362e-02
8.506399551217995458e-02
9.405347381652118255e-02
1.082867436685919366e-01
1.228482260588106140e-01
1.326722406627278417e-01
1.396551454049010932e-01
1.500013288060087213e-01
1.650817175548268678e-01
1.782864058306686261e-01
1.830243694788959430e-01
1.814500180850112110e-01
1.814187458903805672e-01
1.859238069141837535e-01
1.892331253094354238e-01
1.848487450821971190e-01
1.744434991845372207e-01
1.653946891139477238e-01
1.609007612196989845e-01
1.561092767046737273e-01
1.450946940190288026e-01
1.288690530125797262e-01
1.133997113461166911e-01
1.014248336489291802e-01
8.948650686412812361e-02
7.348807656141341516e-02
5.474646482477489584e-02
3.834384575396489886e-02
2.679259143491207612e-02
1.753075804324743386e-02
6.906874237153415308e-03
-5.027376389515503252e-03
-1.527234455774302557e-02
-2.240139596740270411e-02
-2.837466758390226607e-02
-3.549010285990922275e-02
-4.292654822873050169e-02
-4.774891011612929226e-02
-4.889353878378929763e-02
-4.873104727126550961e-02
-5.008618562551556130e-02
-5.269496084839087047e-02
-5.390462500569928594e-02
-5.251070145017686097e-02
-5.045941032158821060e-02
-5.001625192699166167e-02
-5.044650098898541268e-02
-4.907370375301908783e-02
-4.514069761203039211e-02
-4.113267632035161325e-02
-3.958419674008255285e-02
-3.959142460725598167e-02
-3.801343702223923537e-02
-3.382230416549825147e-02
-2.974157418326445201e-02
-2.870775042252124432e-02
-2.987419413912774380e-02
-2.986526852710573443e-02
-2.745281309460040342e-02
-2.530299908368906225e-02
-2.649390045483415723e-02
-3.047857726185815297e-02
-3.394791113711859154e-02
-3.515416164580516256e-02
-3.585421618479882333e-02
-3.844503658143563762e-02
-4.241769184414892480e-02
-4.511921708109650764e-02
-4.542809305963377287e-02
-4.520044582450405413e-02
-4.663539331730148785e-02
-4.924464551721205452e-02
-5.068401073217661257e-02
-5.014179988087710815e-02
-4.958984989002555854e-02
-5.114315966551036263e-02
-5.407882179146188129e-02
-5.568287488973891475e-02
-5.473774685242047133e-02
-5.302426607055787944e-02
-5.283369248095040605e-02
-5.390622443659023877e-02
-5.416395982158601907e-02
-5.304472547746608146e-02
-5.268173618270192982e-02
-5.526899955063260816e-02
-6.018266248383929984e-02
-6.473648262986259061e-02
-6.731069331199646122e-02
-6.868914841810945526e-02
-7.011116265121404567e-02
-7.088451879332700878e-02
-6.899819287032145365e-02
-6.409213800524191096e-02
-5.880495502893919035e-02
-5.631889032141484952e-02
-5.705082718910205186e-02
-5.876994706112731448e-02
-5.969612320359279911e-02
-6.027415954767192940e-02
-6.137548710542328756e-02
-6.193020367416202099e-02
-5.981217015190237740e-02
-5.479010446817897395e-02
-4.937960610160385677e-02
-4.616315653282912490e-02
-4.487373132856273261e-02
-4.314940322105378923e-02
-3.997890337621748391e-02
-3.717309332088272744e-02
-3.672006235652286454e-02
-3.765252059564047626e-02
-3.684043910045906034e-02
-3.228875133539499398e-02
-2.328421617695153323e-02
-5.812897548975709539e-03
2.893979673165207600e-02
8.626564909664821701e-02
1.570026298795570152e-01
2.170392384554367116e-01
2.393810258071484010e-01
2.073113064216538237e-01
1.196469253914390352e-01
-8.581861914474617214e-03
-1.493686104147443905e-01
-2.742322302437767423e-01
-3.678173973857610801e-01
-4.276389727207748903e-01
-4.537261988581756667e-01
-4.437488722624683968e-01
-3.976420553028332527e-01
-3.227374809703191239e-01
-2.328633020773054341e-01
-1.442079332984297357e-01
-7.115032599672174718e-02
-2.174040357293260950e-02
4.905465918114693125e-03
1.590448291386450941e-02
1.853243236719542830e-02
1.660643034183606481e-02
1.217147897985285110e-02
8.515806067003861557e-03
9.258449242849853267e-03
1.476466182591723575e-02
2.139949758845334504e-02
2.554627179581536733e-02
2.761366445974249018e-02
3.075019048891057538e-02
3.607624742977355581e-02
4.089834030593252068e-02
4.249370969985222235e-02
4.216657087008759963e-02
4.367601562279248284e-02
4.821115585851894203e-02
5.275295693415238407e-02
5.434324473271476275e-02
5.454660694734192461e-02
5.759554063994984374e-02
6.464632987961833888e-02
7.208484039762624862e-02
7.669048712187510886e-02
8.072682212571566374e-02
8.940497786328559238e-02
1.037252768500094152e-01
1.183805724179082669e-01
1.285386053435398357e-01
1.366093277882330093e-01
1.489464391713724023e-01
1.665909761130281719e-01
1.825963917797693292e-01
1.905054739481898685e-01
1.928607403265987785e-01
1.974331323713441610e-01
2.062901241778118955e-01
2.125285151987762466e-01
2.095123967442775181e-01
2.001472617445856361e-01
1.929985487086282314e-01
1.909791392127427323e-01
1.879120861242827289e-01
1.772197069341025499e-01
1.607192637234772792e-01
1.456430067960604036e-01
1.349520695582779595e-01
1.240979971622539341e-01
1.078379688117039326e-01
8.732722628364580908e-02
6.806417483605307905e-02
5.273765180447578804e-02
3.876406972630602049e-02
2.293885882892716249e-02
6.343003760682114356e-03
-7.152546565400222378e-03
-1.607050381239753800e-02
-2.304320467753516455e-02
-3.105988699606512804e-02
-3.949427253312801089e-02
-4.535901792363521146e-02
-4.776308531181902572e-02
-4.931496218829202471e-02
-5.254815026861242577e-02
-5.641029802530511672e-02
-5.774943151116361528e-02
-5.561095964783417667e-02
-5.258036179657553377e-02
-5.133571854132559786e-02
-5.107320131317338863e-02
-4.884582542841039987e-02
-4.398511439398347656e-02
-3.954899003845277483e-02
-3.851126576548918878e-02
-3.979380986286010224e-02
-3.981774763254142258e-02
-3.738447458667627787e-02
-3.522928327183688646e-02
-3.610068738112852393e-02
-3.876678360195917605e-02
-3.960169057518150848e-02
-3.747413449305467270e-02
-3.526778551742028311e-02
-3.590618248020244208e-02
-3.830861928926490578e-02
-3.894633826865818993e-02
-3.672511689087382125e-02
-3.451833851191013491e-02
-3.524999107974226276e-02
-3.795760143806112263e-02
-3.933596525014379508e-02
-3.840262476557061710e-02
-3.790390144093613856e-02
-4.056440884932999147e-02
-4.531844398819574737e-02
-4.873944611960018269e-02
-4.946524655820128125e-02
-4.966418261009578061e-02
-5.179133576380784421e-02
-5.513652037878363776e-02
-5.687011497215649358e-02
-5.597402764097797467e-02
-5.469690380697117549e-02
-5.552342033293440615e-02
-5.784098250191127555e-02
-5.900205120723958641e-02
-5.810002109042070040e-02
-5.721473572369958904e-02
-5.849421052512659980e-02
-6.114809852464264672e-02
-6.257672931234295466e-02
-6.196495783609543007e-02
-6.144792850642742665e-02
-6.328623007479386442e-02
-6.684157649590682926e-02
-6.943607004289763240e-02
-6.979136433496196945e-02
-6.941383613163193411e-02
-7.010898187344549726e-02
-7.114139187990739521e-02
-7.007982673595714029e-02
-6.616591892895293259e-02
-6.173162730787247476e-02
-5.964715303504682098e-02
-6.006932450171356686e-02
-6.080722872293101156e-02
-6.050374610917860774e-02
-6.018671027695454701e-02
-6.111111154235934761e-02
-6.231557726905037620e-02
-6.205274039768715610e-02
-6.051648050887564745e-02
-5.893734733994066000e-02
-5.695808926740048017e-02
-5.307652289076236762e-02
-4.749914018134639149e-02
-4.298109445087985869e-02
-4.189095833873004993e-02
-4.321092734728892992e-02
-4.372355709471284491e-02
-4.152882415837952368e-02
-3.610477482895846357e-02
-2.358708499672050596e-02
5.248812930113422315e-03
5.722519919559175550e-02
1.252162846209213254e-01
1.868508200934185237e-01
2.167726878850864125e-01
1.991309724875757470e-01
1.310329676982563973e-01
2.294474331763261821e-02
-1.027086203111431117e-01
-2.211554453011643218e-01
-3.167547013777018972e-01
-3.840428823395232172e-01
-4.206105776785374339e-01
-4.230258251498709154e-01
-3.899996332610221605e-01
-3.269847008818356215e-01
-2.461108352584439052e-01
-1.626960174136303228e-01
-9.108914258890227211e-02
-3.999214742617843155e-02
-9.718972564084382704e-03
5.316041518711123182e-03
1.094961872448260709e-02
1.024880585029297464e-02
5.564697101937271517e-03
1.193520750501081418e-03
1.547456041906869473e-03
6.968825911003118101e-03
1.327083444836230086e-02
1.648526738578184880e-02
1.714328907677889480e-02
1.866279847787447044e-02
2.228982012158864379e-02
2.542027433762748811e-02
2.558539639491660966e-02
2.438187380229762946e-02
2.556243624468707010e-02
2.998693999856971715e-02
3.435143529918915917e-02
3.564844846040508830e-02
3.549225958797035119e-02
3.821858628240136502e-02
4.515072334096935369e-02
5.278280411090520430e-02
5.782780261969129587e-02
6.226250351419516937e-02
7.085650605046699135e-02
8.428434034818166332e-02
9.730764141103356857e-02
1.054150811728559456e-01
1.112115625394697049e-01
1.210880933639121859e-01
1.362309298786988920e-01
1.501675482813280837e-01
1.570453234847385138e-01
1.595594616593375703e-01
1.650286792789903978e-01
1.750107613902044668e-01
1.825958909201965408e-01
1.814378450888709526e-01
1.742902466689793817e-01
1.690736473778325366e-01
1.682704516628274749e-01
1.658853090794601415e-01
1.558938985847787007e-01
1.405253255641730759e-01
1.269445981917786681e-01
1.177710325683237330e-01
1.083509313976582789e-01
9.372263327752543283e-02
7.541911382818633491e-02
5.906367109664114462e-02
4.697512218112508131e-02
3.578889897704447265e-02
2.162457064111399097e-02
5.500350151247043740e-03
-8.200308574410730689e-03
-1.746309879402985210e-02
-2.477131985382462209e-02
-3.319404866118171038e-02
-4.202364699569628714e-02
-4.795062302943009502e-02
-4.984113776662749129e-02
-5.048122777988514609e-02
-5.291400655419803423e-02
-5.646836966604040775e-02
-5.802376286827422291e-02
-5.650520520438807870e-02
-5.440909560824319646e-02
-5.440538449252468878e-02
-5.578024424397513836e-02
-5.567355485097350010e-02
-5.324018011238369763e-02
-5.090764893904442534e-02
-5.086188605049832279e-02
-5.170671386635689037e-02
-5.018924485301520799e-02
-4.564988752394952276e-02
-4.119709455675479859e-02
-3.983975774437104045e-02
-4.067850724040444899e-02
-4.041742283605788411e-02
-3.803237232220035846e-02
-3.627299682522318325e-02
-3.792884786640582373e-02
-4.199779038936993225e-02
-4.506489187784598616e-02
-4.571628341380112870e-02
-4.598929562378757663e-02
-4.807608630330727217e-02
-5.092768639291000987e-02
-5.161132823614898724e-02
-4.953988547970966660e-02
-4.769157881918256736e-02
-4.894456197146868082e-02
-5.251603664246326519e-02
-5.538990228861979948e-02
-5.642027358306883622e-02
-5.753604045958865543e-02
-6.068877036198849773e-02
-6.482640296788105827e-02
-6.707027071890805936e-02
-6.644469924967084939e-02
-6.511091953952193034e-02
-6.533532771931724326e-02
-6.631817577304301159e-02
-6.533704144317281637e-02
-6.160050921097280641e-02
-5.758713205046071815e-02
-5.604100863923866527e-02
-5.675927546897638343e-02
-5.751645791534398811e-02
-5.754160295961430194e-02
-5.864360154366028699e-02
-6.242021509872588969e-02
-6.754162700559876442e-02
-7.105516355428022346e-02
-7.188219711698846937e-02
-7.181337091661725569e-02
-7.281641939640397243e-02
-7.440035352591597984e-02
-7.448811704830636538e-02
-7.241978948754851375e-02
-7.013401323609422255e-02
-6.989034732138296735e-02
-7.152872786903335944e-02
-7.304859660824111756e-02
-7.348633176340965689e-02
-7.392390404892723588e-02
-7.527989195912690445e-02
-7.627002973673624453e-02
-7.474145272779550431e-02
-7.060459023182294458e-02
-6.631891011442775374e-02
-6.412986580454482777e-02
-6.358569776037056864e-02
-6.254192699738692074e-02
-6.021828581662122537e-02
-5.819435243110449019e-02
-5.789872107467441964e-02
-5.810560855723065354e-02
-5.611351525308069799e-02
-5.088131317975586043e-02
-4.294022713586512219e-02
-2.976920581338363125e-02
-3.437271345838155412e-03
4.277664709762085682e-02
1.037487161102847444e-01
1.607784109079840318e-01
1.924448058638598691e-01
1.854854994192475515e-01
1.367261551526606222e-01
5.260615577312489910e-02
-5.114702181652300284e-02
-1.552574818813795554e-01
-2.446413012698568368e-01
-3.107361053582025079e-01
-3.491908933018446071e-01
-3.576530967607562395e-01
-3.364165917295459662e-01
-2.902899614669073869e-01
-2.284225183890418176e-01
-1.623617986087594889e-01
-1.032271355568917526e-01
-5.788425917808731613e-02
-2.679231188803365971e-02
-6.330150630539849166e-03
6.573188477582064815e-03
1.258993743171962776e-02
1.260540839200174901e-02
1.029052928068896477e-02
1.018158810637842526e-02
1.352009438374787709e-02
1.746551269286994446e-02
1.914988935888239929e-02
1.941306749291146772e-02
2.118519158970619265e-02
2.493452243466812157e-02
2.760765350363780790e-02
2.675069764799670180e-02
2.408721608624253552e-02
2.345592331719334456e-02
2.590948022639946724e-02
2.845822827018412715e-02
2.831341807086748541e-02
2.692251756452349043e-02
2.809069650513035254e-02
3.280831836405481705e-02
3.789831301626114812e-02
4.065341738771921509e-02
4.312105157859442983e-02
4.963857770848009721e-02
6.068124316151629616e-02
7.153679809088890618e-02
7.838084843207698826e-02
8.359042150446380215e-02
9.250087509674624620e-02
1.058277325672737634e-01
1.180123688731144205e-01
1.243939186583110368e-01
1.275710842585849325e-01
1.336307905721895173e-01
1.433252172980345185e-01
1.503169908784908748e-01
1.493533926224341057e-01
1.432545095670506863e-01
1.389154111440262240e-01
1.381587385327054107e-01
1.357294322716824375e-01
1.269426745563653480e-01
1.143658931512129551e-01
1.043258449550399508e-01
9.856893348029993618e-02
9.230432084588310881e-02
8.087641553793087357e-02
6.580666375259311418e-02
5.226163673453200487e-02
4.229250669968026566e-02
3.295750970768547561e-02
2.118537095785122393e-02
8.334870632448254657e-03
-1.739230590853402258e-03
-7.920694328644145576e-03
-1.320773982480130671e-02
-2.061758085216827685e-02
-2.930484814028300189e-02
-3.608862749369290412e-02
-3.986664687259572348e-02
-4.284991181156569406e-02
-4.710378354850472404e-02
-5.130981156192479520e-02
-5.238835582506162769e-02
-4.971540507654365060e-02
-4.618959437569114534e-02
-4.466595027581529709e-02
-4.458912987512864134e-02
-4.334784935874147482e-02
-4.029250197212913553e-02
-3.787093847073635944e-02
-3.813438353341602749e-02
-3.944359839124095268e-02
-3.826669165782325965e-02
-3.380937747200052357e-02
-2.920170621760809215e-02
-2.738440531685579216e-02
-2.734127401796720980e-02
-2.596059257707281076e-02
-2.270027959533271744e-02
-2.054952707603718842e-02
-2.185972942335256963e-02
-2.484259906482730318e-02
-2.576184708203343998e-02
-2.378701600212562717e-02
-2.203835011088745022e-02
-2.343957466049625959e-02
-2.692015464210620324e-02
-2.905664563007803736e-02
-2.875348748640557672e-02
-2.861266937654691200e-02
-3.117495429989983191e-02
-3.535906112031242388e-02
-3.803113525584786436e-02
-3.828064092864452705e-02
-3.857686376700969477e-02
-4.128240494643792280e-02
-4.530412536745187513e-02
-4.749810526982040093e-02
-4.679605959623758804e-02
-4.548525899426955621e-02
-4.599957929278256086e-02
-4.774269754889434725e-02
-4.827208793816406551e-02
-4.688484774575113478e-02
-4.562365493588346754e-02
-4.640135981881690630e-02
-4.835206261261096317e-02
-4.916177009146885379e-02
-4.836859718808350639e-02
-4.810297203323218862e-02
-5.022424356141932944e-02
-5.369347152437065063e-02
-5.584889357803965448e-02
-5.580680487292891123e-02
-5.540426015360511158e-02
-5.648373615118149060e-02
-5.822861664661704850e-02
-5.820322689007093042e-02
-5.576587202286611977e-02
-5.329590141196122177e-02
-5.340779251650584758e-02
-5.585111498441139299e-02
-5.819929045720717564e-02
-5.905353532591706145e-02
-5.932481067353714832e-02
-6.006378336249065808e-02
-6.024239213076684751e-02
-5.791077169470390529e-02
-5.318510881041896288e-02
-4.875038423814287425e-02
-4.674732998778560744e-02
-4.617260215596774575e-02
-4.445653419604891909e-02
-4.100551659400381022e-02
-3.796804519490748486e-02
-3.723423596780586764e-02
-3.759667650608858325e-02
-3.567744028991118310e-02
-2.899233094227332552e-02
-1.590283448524565380e-02
8.365819490086745525e-03
5.144696904340359533e-02
1.147176781195389517e-01
1.845074665181112294e-01
2.342793350450693146e-01
2.374121327125097713e-01
1.806863743009666512e-01
6.992924045843720848e-02
-7.176620900287952742e-02
-2.119839106562957931e-01
-3.232645440415028437e-01
-3.939305756347823984e-01
-4.250847681751397933e-01
-4.209939465706674100e-01
-3.854647384545386024e-01
-3.243024168574762389e-01
-2.469897394814835057e-01
-1.653590597912578120e-01
-9.162829353007487243e-02
-3.596604412162804354e-02
-2.579589170303542289e-03
1.225509643988209607e-02
1.667590137853833254e-02
1.707046699338995999e-02
1.539584792306261662e-02
1.196076356586539546e-02
8.821763419831318842e-03
8.830194842743693817e-03
1.215710531820060614e-02
1.569166328714477476e-02
1.678074415448807533e-02
1.647639212571347378e-02
1.777747290295050853e-02
2.132006048801926568e-02
2.443388378505889635e-02
2.495983984713404102e-02
2.452533584233654307e-02
2.657928357194080937e-02
3.178529293846713011e-02
3.704931283337825620e-02
3.980422817108744682e-02
4.167039288369067673e-02
4.616838401390613300e-02
5.358033514569386646e-02
6.025374858120871591e-02
6.391394308353967602e-02
6.763321141573913620e-02
7.633260257423980788e-02
9.004875276661189476e-02
1.031581209985278913e-01
1.116982469473953160e-01
1.190293876027579412e-01
1.313403574151107145e-01
1.487231303533299298e-01
1.638597229801244393e-01
1.709212515473704785e-01
1.729129640428085923e-01
1.771139331916470050e-01
1.848959019895568823e-01
1.896499553951495332e-01
1.859229383077756204e-01
1.771859264130523637e-01
1.712385564988626874e-01
1.699073938604772349e-01
1.668765282877874012e-01
1.562849353394996088e-01
1.402005997782647673e-01
1.250752665200172420e-01
1.131031835448469552e-01
1.002151685814924309e-01
8.261606416184666402e-02
6.242452414153988605e-02
4.494552823248471052e-02
3.205826727427467382e-02
2.056093950043430540e-02
7.160787829738085586e-03
-6.987200846797686493e-03
-1.820382614232063379e-02
-2.535630039334871300e-02
-3.109962989480283269e-02
-3.797154618808504245e-02
-4.491768743468815828e-02
-4.897493337548905479e-02
-4.956197995991176719e-02
-4.952569539989362668e-02
-5.150053248156977181e-02
-5.458927209993469365e-02
-5.596513447479906089e-02
-5.499882466668942760e-02
-5.418303754821773843e-02
-5.557613625314306027e-02
-5.776953348231536611e-02
-5.765646288399828290e-02
-5.454984977133692237e-02
-5.113180481885420958e-02
-4.984288410796389179e-02
-4.962304285837929041e-02
-4.759087294098279797e-02
-4.329972836348083831e-02
-3.970080832840888752e-02
-3.930460281258404964e-02
-4.080621219740818151e-02
-4.096764835641525382e-02
-3.908645246878997281e-02
-3.791476034234977921e-02
-3.975398085629369693e-02
-4.320817211552249737e-02
-4.514461227063165660e-02
-4.495457560112969819e-02
-4.527667642988314478e-02
-4.827502989797188837e-02
-5.260588115240935614e-02
-5.518408588376080837e-02
-5.523459546331355163e-02
-5.519354597110179284e-02
-5.724314120422402397e-02
-6.029252124508810429e-02
-6.155815617965676445e-02
-6.037896023128144773e-02
-5.910069616965846206e-02
-5.991765718463804014e-02
-6.200185018926820946e-02
-6.275450565516182966e-02
-6.133890150161044885e-02
-5.975298179599006221e-02
-5.999148465015050058e-02
-6.130085139312937970e-02
-6.142210101757605845e-02
-5.996829979470164051e-02
-5.918600642306462434e-02
-6.096344053467658841e-02
-6.424029522346400012e-02
-6.638184966140953103e-02
-6.655281844769944666e-02
-6.668735276659110145e-02
-6.888697668269033736e-02
-7.280446789906258598e-02
-7.635237690705834468e-02
-7.840928620806811300e-02
-7.986455572426356952e-02
-8.167174906643126508e-02
-8.277755984239523745e-02
-8.121244561795265549e-02
-7.704333246842895444e-02
-7.302187433969259400e-02
-7.172578546289287704e-02
-7.276236707381092406e-02
-7.360227185824247398e-02
-7.282386690892689307e-02
-7.148798668141889689e-02
-7.104317791170317031e-02
-7.101383003220490542e-02
-6.970724639677206014e-02
-6.670853404732102199e-02
-6.358079120491141878e-02
-6.164293890227823258e-02
-5.992927433681821681e-02
-5.648260439522956311e-02
-5.141725723803067249e-02
-4.737242449140380285e-02
-4.625578725379639322e-02
-4.625382885490053608e-02
-4.275435694009069310e-02
-3.190178992799572177e-02
-1.160790225133462306e-02
2.154901261592478967e-02
7.207083086495706670e-02
1.377116751803345585e-01
2.023223092323538364e-01
2.383181684956844903e-01
2.189593487923228166e-01
1.324097578547481779e-01
-1.113701479296982932e-02
-1.805553543172918329e-01
-3.342547507171330645e-01
-4.398137264686639014e-01
-4.871439985941658501e-01
-4.829582015859567590e-01
-4.389802932614195741e-01
-3.675789547734794049e-01
-2.818008540090424230e-01
-1.941133553348164398e-01
-1.147404295952810238e-01
-5.158151477905234539e-02
-9.791058674162078646e-03
1.078511971818230109e-02
1.667003003923861471e-02
1.676363717924853058e-02
1.651725118910760126e-02
1.636956641707784654e-02
1.558390008598295462e-02
1.579040077005480769e-02
1.949447135440612877e-02
2.625589929317745375e-02
3.239339608407587612e-02
3.532262218087683925e-02
3.681225919250030731e-02
4.043672713954357678e-02
4.653801538842949892e-02
5.149389617123548146e-02
5.255525658351420382e-02
5.169574382223934839e-02
5.301381249014938679e-02
5.725116062887619650e-02
6.098747683737401615e-02
6.183224839200360257e-02
6.231477842090710206e-02
6.675459636466113400e-02
7.525503613250637824e-02
8.315040668342428554e-02
8.740013663196730120e-02
9.133636664891714441e-02
1.006804970328064736e-01
1.157459622914476516e-01
1.304278077816591885e-01
1.402904992033947862e-01
1.487891395781988091e-01
1.623220114013685933e-01
1.805239621884597856e-01
1.952151695828629463e-01
2.004794224833787719e-01
2.002162443548328175e-01
2.023971785459101058e-01
2.081504262056990961e-01
2.103451409579393805e-01
2.035972909567000388e-01
1.918837682115371313e-01
1.831736155564754331e-01
1.788819799615066763e-01
1.722868101013295128e-01
1.577440462722712877e-01
1.380503899599019590e-01
1.203107378396463534e-01
1.068867800890036246e-01
9.343321041020002937e-02
7.573838891793288619e-02
5.555351966161685418e-02
3.784466979135640841e-02
2.426141349214509801e-02
1.175141773289169189e-02
-2.566026255219372443e-03
-1.737631246091528303e-02
-2.918959704011370171e-02
-3.699196201885179836e-02
-4.315682308422338909e-02
-4.973106302826366121e-02
-5.549453369115195378e-02
-5.786890427785762459e-02
-5.691884208732625461e-02
-5.590260817624317924e-02
-5.740966656076398889e-02
-6.027702535779014270e-02
-6.142784501389286778e-02
-6.005744087542430609e-02
-5.858657067103570371e-02
-5.905861351788888047e-02
-6.013116941485646683e-02
-5.899138771392939407e-02
-5.538159735083444946e-02
-5.213770434766906714e-02
-5.140715384157840129e-02
-5.173427091528673416e-02
-5.005900184625963756e-02
-4.594181820188686372e-02
-4.236576569080741095e-02
-4.178689625212272940e-02
-4.281241227073606659e-02
-4.222723816647733219e-02
-3.948592325784650026e-02
-3.750373990192551465e-02
-3.857344616314156704e-02
-4.106368909591506799e-02
-4.159376723746505133e-02
-3.965435283168350367e-02
-3.833480413403525522e-02
-4.009032248034827273e-02
-4.345055365508510015e-02
-4.517990728019113944e-02
-4.465983796079650570e-02
-4.459953788143525277e-02
-4.725850871276254805e-02
-5.140105903859040759e-02
-5.412612885225248638e-02
-5.485793996016802287e-02
-5.595568088446337129e-02
-5.913412664995909562e-02
-6.276954479849808366e-02
-6.388797078114755168e-02
-6.209346148327227199e-02
-6.014265701810284082e-02
-6.030737499519969735e-02
-6.149316153649553307e-02
-6.103968698072617660e-02
-5.858236485829818041e-02
-5.671663857598302494e-02
-5.756388715303292769e-02
-5.998273385756416887e-02
-6.122714617408925308e-02
-6.067393578971613799e-02
-6.055702727524950313e-02
-6.273140185326017693e-02
-6.607687435087891692e-02
-6.807059303876109024e-02
-6.806422728535660438e-02
-6.786429903543289566e-02
-6.896994257297656139e-02
-7.022752665694012575e-02
-6.919316208485098985e-02
-6.559099101821777578e-02
-6.221146943995176093e-02
-6.166960655979028538e-02
-6.330113862324490692e-02
-6.435577685183824226e-02
-6.361971566422980340e-02
-6.253293685990080064e-02
-6.241548041307096173e-02
-6.202145176701473472e-02
-5.915114941260213310e-02
-5.397886446833777274e-02
-4.925837887665374115e-02
-4.686545534419550574e-02
-4.541250434286989157e-02
-4.231265008745149769e-02
-3.752533960728565710e-02
-3.393543433182416580e-02
-3.366009726511243194e-02
-3.513457134964956263e-02
-3.475671308218930555e-02
-3.043476581644874446e-02
-2.111714940645628702e-02
-2.087193751692861809e-03
3.508614595795248037e-02
9.310924757948108033e-02
1.594431066202444680e-01
2.089195999233613710e-01
2.175141065484299807e-01
1.742032820210139832e-01
8.381985634986398315e-02
-3.500767742516180947e-02
-1.558606465376442818e-01
-2.557001221982444505e-01
-3.235685342812790743e-01
-3.592194430303299879e-01
-3.659481068028390127e-01
-3.464365008081380370e-01
-3.038280436306448062e-01
-2.439450629775153923e-01
-1.756177131590719309e-01
-1.097137105570565319e-01
-5.656924771577606648e-02
-2.143537417713978210e-02
-2.069957318043325056e-03
7.811259593462793749e-03
1.260416636945338453e-02
1.305575845576209537e-02
9.864524312071798473e-03
6.540052342892732629e-03
6.987275621369082312e-03
1.119149132652888512e-02
1.517577350053728180e-02
1.594046021457573570e-02
1.506618625724071014e-02
1.621397100715274431e-02
2.001947906932963206e-02
2.323452577105425410e-02
2.340589997543435219e-02
2.249000743346468711e-02
2.412751141731594995e-02
2.840527478144549978e-02
3.148342196022399508e-02
3.097530905799580903e-02
2.963871641260223955e-02
3.200661140170499297e-02
3.846167720183055194e-02
4.481769633314869328e-02
4.833884848931982448e-02
5.193442341989040756e-02
6.033239929300336646e-02
7.314219815093052357e-02
8.449296694608962599e-02
9.072262751135196091e-02
9.565700154627726493e-02
1.056044096359340378e-01
1.205569473243608136e-01
1.335184403343512294e-01
1.395410246554253664e-01
1.421483152299389818e-01
1.479523836508798151e-01
1.569312378978348355e-01
1.617195224223982875e-01
1.573441106169000125e-01
1.480484554371993278e-01
1.417095881727238882e-01
1.397506754436651233e-01
1.359188284693051418e-01
1.252934196493805663e-01
1.109593144026411321e-01
9.941699868940009899e-02
9.186384863613814011e-02
8.320170847739459530e-02
6.957999062986468253e-02
5.368027916015774559e-02
4.075207243798720236e-02
3.163813172231527693e-02
2.218438584181521567e-02
9.327670160673845468e-03
-4.738789654625041869e-03
-1.576377682218174647e-02
-2.301550139678515405e-02
-2.978297330022924849e-02
-3.855310881876952700e-02
-4.758386572289943772e-02
-5.335940344891415554e-02
-5.529497147714884653e-02
-5.635281521779306191e-02
-5.881529056861561910e-02
-6.115365155806612441e-02
-6.038393235534408876e-02
-5.656904995933600966e-02
-5.320054726001810508e-02
-5.272685817109845630e-02
-5.340815508094598485e-02
-5.188575842710185793e-02
-4.789824447506998983e-02
-4.481754331697207494e-02
-4.516574663552722080e-02
-4.723571511679391932e-02
-4.747473858189391049e-02
-4.522384772307314060e-02
-4.334711090695014812e-02
-4.391022793346271991e-02
-4.506370382964236532e-02
-4.358461130566079755e-02
-3.953691155755698072e-02
-3.659519748531325778e-02
-3.730050945785351457e-02
-3.975553181383881252e-02
-4.035367880254486783e-02
-3.867308625182189208e-02
-3.794902862520058151e-02
-4.048348336609233766e-02
-4.431544921555125027e-02
-4.575938871592782897e-02
-4.429503977236703971e-02
-4.319472746671945695e-02
-4.500377236751798571e-02
-4.816218857654447350e-02
-4.931877896666769789e-02
-4.795824683948518574e-02
-4.711590231564805054e-02
-4.922379817803534952e-02
-5.290602480149078635e-02
-5.507467674098995292e-02
-5.515536513316598999e-02
-5.568849808091749787e-02
-5.853438607063227161e-02
-6.206854717438181623e-02
-6.335206654337088850e-02
-6.215515514231556571e-02
-6.133535069444387422e-02
-6.305696274376940136e-02
-6.601622439202792236e-02
-6.738049896619843770e-02
-6.669210295377892006e-02
-6.645107470719491261e-02
-6.851714058469518531e-02
-7.135891867916252518e-02
-7.204870093183052271e-02
-7.021248368016597130e-02
-6.851226059310927541e-02
-6.901359326395911653e-02
-7.054953527262408652e-02
-7.065963700820007687e-02
-6.923681425425279312e-02
-6.880437907710165724e-02
-7.094388221699826635e-02
-7.378437355017822274e-02
-7.408633079163290391e-02
-7.122580383817725402e-02
-6.783480723247103938e-02
-6.622019534306516908e-02
-6.546778119808172036e-02
-6.310121819812261612e-02
-5.883543077986513881e-02
-5.517604492225897106e-02
-5.393584333437453915e-02
-5.368350636886659588e-02
-5.184530889992872149e-02
-4.841936892006912241e-02
-4.591636526673070762e-02
-4.499372960772576868e-02
-4.099612870550686794e-02
-2.635658775352925365e-02
2.308981585588953944e-03
4.078923316188268200e-02
8.271269052436266978e-02
1.244551097318518929e-01
1.605153565046139597e-01
1.777474802002908805e-01
1.594971580346498108e-01
9.645486592206037324e-02
-5.998196366684305225e-03
-1.282707241524984054e-01
-2.431729661502863571e-01
-3.265734762767358301e-01
-3.671643986281782901e-01
-3.674802826710806269e-01
-3.370443151190174458e-01
-2.868599988875144002e-01
-2.276989554737823274e-01
-1.682678561535417838e-01
-1.136161193429617022e-01
-6.646734343416504931e-02
-2.997924847201893783e-02
-7.609662416095702708e-03
5.416542929688183960e-04
-3.422068374815123715e-04
-3.304999095063876347e-03
-4.912227586343825836e-03
-6.116265529722247907e-03
-8.084500677301542648e-03
-9.082068858503627995e-03
-6.629147097676091338e-03
-1.549682452626266471e-03
2.146504009853889006e-03
2.045765944417687887e-03
3.504031752794289911e-04
8.840823109641238187e-04
4.111346293252438056e-03
6.766436644207701745e-03
6.620257622455300028e-03
5.770264134489277996e-03
7.833737132344503751e-03
1.286479734529069607e-02
1.703265968592415636e-02
1.788705173762178413e-02
1.794817136941739832e-02
2.149614250900680479e-02
2.886804243167229167e-02
3.611475327457705498e-02
4.094431781271790083e-02
4.658472859487003404e-02
5.760557712503239225e-02
7.303916675104209222e-02
8.648677741894866822e-02
9.410660878339724422e-02
9.964861810107680795e-02
1.092112277486299021e-01
1.226319737830489920e-01
1.330604434033307304e-01
1.358611101363748352e-01
1.346916944931690063e-01
1.361633104446558495e-01
1.405716855430934331e-01
1.413491173076710794e-01
1.341736142452418235e-01
1.229947919687131436e-01
1.146754674479585623e-01
1.100741333059360172e-01
1.034361018015341194e-01
9.057879636327786921e-02
7.452550390847176298e-02
6.125333483382125466e-02
5.205597869077115136e-02
4.258967665901447486e-02
2.929647185390606146e-02
1.412092066577907978e-02
1.437501763037557501e-03
-7.750652344387848336e-03
-1.643419599647799600e-02
-2.673544665066723836e-02
-3.658689032972339827e-02
-4.246414900451536689e-02
-4.425801327815909181e-02
-4.565387214260110960e-02
-4.941586639649925283e-02
-5.406072706402625938e-02
-5.634430786553867865e-02
-5.583417645555135977e-02
-5.537274426761845669e-02
-5.695419464975814972e-02
-5.886293662757755007e-02
-5.807306971675990637e-02
-5.458916153138387850e-02
-5.175574162476428985e-02
-5.183559607430945904e-02
-5.297199605225039187e-02
-5.188724210516768021e-02
-4.850337630464984784e-02
-4.605943330581277473e-02
-4.648526300361749408e-02
-4.752397659960372334e-02
-4.566086578142206087e-02
-4.088706556063079200e-02
-3.686617997457719564e-02
-3.608807005311445715e-02
-3.664771520794243842e-02
-3.507682973433423612e-02
-3.128276120994297194e-02
-2.885157670533816665e-02
-3.015604864309764932e-02
-3.316937407819836592e-02
-3.437559732533754242e-02
-3.348587181220830100e-02
-3.359086366035360371e-02
-3.657390627819842588e-02
-4.016009827054395354e-02
-4.081961084628760172e-02
-3.856465077044193834e-02
-3.706012607693789929e-02
-3.877454622294185249e-02
-4.184727724748749100e-02
-4.285182026134284894e-02
-4.145072469628760525e-02
-4.068007994317301979e-02
-4.261503790689422089e-02
-4.549133160667426234e-02
-4.612993052934485916e-02
-4.426137098773313960e-02
-4.294248278219373050e-02
-4.438195230614874753e-02
-4.703504185772916513e-02
-4.801546345983687125e-02
-4.722918318613356092e-02
-4.756879497021299086e-02
-5.097241570867183658e-02
-5.576317090505703011e-02
-5.886872026084233323e-02
-5.984393370898788422e-02
-6.127542924769224797e-02
-6.498050116306694490e-02
-6.922279702270706103e-02
-7.077700048927806908e-02
-6.901464474624302570e-02
-6.640280023389832920e-02
-6.478694516129016034e-02
-6.301098944122740519e-02
-5.924560767188452592e-02
-5.450829688843042420e-02
-5.232134513103547935e-02
-5.451260342485708676e-02
-5.858983576044135555e-02
-6.037172831688267238e-02
-5.862163475991918893e-02
-5.581329621556072040e-02
-5.431003430735972803e-02
-5.341154356143706927e-02
-5.107402097358626492e-02
-4.748357613573478408e-02
-4.529357356948041091e-02
-4.595785043830161176e-02
-4.741662010121144855e-02
-4.661505177773114794e-02
-4.342207421601740336e-02
-4.052309588964361775e-02
-3.897177468893825436e-02
-3.478262355545341800e-02
-2.122796061073900509e-02
4.911472369974717589e-03
4.106784570081636887e-02
8.400724419518922070e-02
1.327257152892979408e-01
1.819987797173980293e-01
2.156610333530199208e-01
2.106882346856659149e-01
1.500365375510958332e-01
3.370486515434839569e-02
-1.182272297151993334e-01
-2.708083629221311739e-01
-3.877790866285694693e-01
-4.477406883009817928e-01
-4.497938784419556191e-01
-4.064896415184810485e-01
-3.353247683564629655e-01
-2.537935395648781012e-01
-1.754162747316435067e-01
-1.075910633314647868e-01
-5.337459372472869168e-02
-1.491016659432387037e-02
6.200461538271362372e-03
1.206823971165368881e-02
9.694042884035997121e-03
6.811224965404066856e-03
6.548491509506787489e-03
7.190596391706632895e-03
7.203139843503819639e-03
8.561949552695763410e-03
1.398000088996076418e-02
2.231402951979125082e-02
2.891302966580483469e-02
3.103910820510738522e-02
3.108076536714288185e-02
3.310730742330522669e-02
3.740576003208620492e-02
4.031052943454965787e-02
3.968129145975299310e-02
3.829441910908562563e-02
4.026933521921718939e-02
4.545123553754648604e-02
4.956608889177410715e-02
5.036179786550981641e-02
5.120480025844256766e-02
5.687086257734835781e-02
6.702757290419993075e-02
7.636529604202886568e-02
8.201205779523573769e-02
8.809032565404655013e-02
1.004397850804685105e-01
1.181682779753069346e-01
1.337983397498687665e-01
1.428796252048134541e-01
1.498669763058988746e-01
1.616845065018318317e-01
1.775506986103008722e-01
1.889822056552374618e-01
1.908143974549752209e-01
1.880824276571405052e-01
1.889948613670613398e-01
1.937985252754290677e-01
1.945518509646388394e-01
1.862034282463507218e-01
1.735010344828556150e-01
1.643459215206678481e-01
1.593393990293923701e-01
1.514688964253052550e-01
1.359887505769153127e-01
1.166960278828410302e-01
1.003631630899104871e-01
8.788084562947715006e-02
7.398867993605495741e-02
5.516465795483060930e-02
3.446620610335462964e-02
1.734368406398414941e-02
4.987590335782221551e-03
-6.175875309565453941e-03
-1.886596049695044020e-02
-3.119646169546805292e-02
-3.967136235418280976e-02
-4.427442502321471407e-02
-4.866856091780544236e-02
-5.534713027911852823e-02
-6.244115001593320002e-02
-6.645143180091547808e-02
-6.698850027717151434e-02
-6.712044924950769098e-02
-6.897113880895514026e-02
-7.081421543729538026e-02
-6.963804525948083524e-02
-6.552665275535909939e-02
-6.183479583566867110e-02
-6.072044240868329501e-02
-6.028269433836219715e-02
-5.744974751951051339e-02
-5.261952201654812589e-02
-4.958053893558053704e-02
-5.054208717467437162e-02
-5.306551519816435358e-02
-5.315981866770483344e-02
-5.040933382392429052e-02
-4.833413735635061492e-02
-4.944680678383292505e-02
-5.192533555744435758e-02
-5.237042291434690355e-02
-5.052934205357814679e-02
-4.957115409145612661e-02
-5.156518087217687452e-02
-5.451116240792974743e-02
-5.510173642962712393e-02
-5.334920979541488140e-02
-5.269603456104024475e-02
-5.530345639491918153e-02
-5.905599994231311434e-02
-6.039971984669265104e-02
-5.900252432095876021e-02
-5.799692224462543733e-02
-5.958747183490939459e-02
-6.215940982143103311e-02
-6.276167887159947445e-02
-6.136322866639895568e-02
-6.097246432052891296e-02
-6.334617528374494877e-02
-6.637415209740615829e-02
-6.681674889283920060e-02
-6.458326900667157866e-02
-6.284330561692591521e-02
-6.377103140804291082e-02
-6.575228222929274668e-02
-6.582825104464429256e-02
-6.387309116274744736e-02
-6.284154624091645158e-02
-6.475579257377284126e-02
-6.804768841816705160e-02
-6.985201739022170453e-02
-6.985622115974096658e-02
-7.050857068446603204e-02
-7.344678365801357578e-02
-7.718412721000575405e-02
-7.921784597965536578e-02
-7.948625324642225043e-02
-8.035291194188498576e-02
-8.307955560354066127e-02
-8.571908611553566426e-02
-8.541255959920879270e-02
-8.208570605064130499e-02
-7.869937131800430752e-02
-7.766680542135109833e-02
-7.832779913629736579e-02
-7.865568462542615880e-02
-7.834460609446552981e-02
-7.895310724538906477e-02
-8.100428676458504285e-02
-8.231533326668025174e-02
-8.026360904608445535e-02
-7.517862003356542977e-02
-7.024839354935361047e-02
-6.774834203538418476e-02
-6.654927498581328371e-02
-6.414381410969877129e-02
-6.031258156020338768e-02
-5.753169017314743727e-02
-5.750972614795779592e-02
-5.863853877708719020e-02
-5.801413126076832016e-02
-5.493986167786110708e-02
-4.982453098640252098e-02
-3.863383383433455220e-02
-1.134918546733368339e-02
3.958470202155836559e-02
1.076974629740910794e-01
1.724434938250245797e-01
2.121380174630562165e-01
2.132033068049318247e-01
1.695187630945107771e-01
8.330038049011947998e-02
-3.242511327493000084e-02
-1.591533255546414560e-01
-2.806154651745530471e-01
-3.832325173782325511e-01
-4.530418312235133249e-01
-4.773565922664074757e-01
-4.515763271983174731e-01
-3.836137175465944016e-01
-2.911631219196307852e-01
-1.952775390665253963e-01
-1.137601975927787223e-01
-5.564132462085161213e-02
-2.001626127755554152e-02
-6.898869841286403570e-04
7.693943432685784733e-03
7.879279720725190783e-03
2.972287797665867926e-03
-1.696807829002999757e-03
-1.515219935773887139e-03
3.352674513170339488e-03
8.624759695131378745e-03
1.129054990824837623e-02
1.295349823515831722e-02
1.680628973456455011e-02
2.259133519616762786e-02
2.663939395668937782e-02
2.710025041992078498e-02
2.685405516580013918e-02
2.987787397593258398e-02
3.596536271508127269e-02
4.095694543293140755e-02
4.249280291566201462e-02
4.335854690809132217e-02
4.762897554957706836e-02
5.488493569596655797e-02
6.063715114825968255e-02
6.286751459451248025e-02
6.557527016560518729e-02
7.398670951955768627e-02
8.747946841174589205e-02
9.997036991400799766e-02
1.081837316336000387e-01
1.164258023949376747e-01
1.306326264154810124e-01
1.494024577871980730e-01
1.645761305627126414e-01
1.716623520390139768e-01
1.756721260138707219e-01
1.838810539449484416e-01
1.953619110953941362e-01
2.015436751383285208e-01
1.976547657835524274e-01
1.893138282574727271e-01
1.851015755188946121e-01
1.854473730624870975e-01
1.825579239075831028e-01
1.713004548818928829e-01
1.558654285912026982e-01
1.435120342107554237e-01
1.348965642951082677e-01
1.238620613379435575e-01
1.062938972062547893e-01
8.557789125144410480e-02
6.775205838146107495e-02
5.385801749249924386e-02
3.965790183400373647e-02
2.238268456411655893e-02
4.808652859575490712e-03
-8.530428972917641905e-03
-1.718121648110698674e-02
-2.496600685013541931e-02
-3.469368548566006960e-02
-4.471859077162690377e-02
-5.170041714214634876e-02
-5.533856639781373210e-02
-5.864756197005846494e-02
-6.361817891669679925e-02
-6.843314866921490491e-02
-6.999044562933973146e-02
-6.820438017644997464e-02
-6.627650527369921551e-02
-6.642564398072578480e-02
-6.701338928346611823e-02
-6.510010176266675663e-02
-6.084801616242493938e-02
-5.766821068906949344e-02
-5.773009288190711352e-02
-5.902515093008611768e-02
-5.802650858887745122e-02
-5.438026938896181606e-02
-5.136133790723207415e-02
-5.134971722956488405e-02
-5.267975195187976634e-02
-5.224852243357316905e-02
-5.004981417820847378e-02
-4.923128236808962943e-02
-5.152565066025963092e-02
-5.460916295236140083e-02
-5.508037642704605164e-02
-5.290663739694409506e-02
-5.140160581957636809e-02
-5.270687243580796100e-02
-5.500031453873391318e-02
-5.522960936933835052e-02
-5.346550757925541686e-02
-5.283832997894880035e-02
-5.512749787338822038e-02
-5.826692180199000148e-02
-5.914089586980167401e-02
-5.774105390564787665e-02
-5.707856798317931246e-02
-5.888588339494252311e-02
-6.111644332365157029e-02
-6.073558793241387588e-02
-5.792750480975589200e-02
-5.596416329042172566e-02
-5.683174612165545203e-02
-5.870532123279528780e-02
-5.861691131000373867e-02
-5.650560967836959492e-02
-5.524208007353106908e-02
-5.660346270030752747e-02
-5.877961508298598647e-02
-5.879813638580311252e-02
-5.655567837603542314e-02
-5.503322717152606125e-02
-5.624902878458915012e-02
-5.859162239376330961e-02
-5.919907215577649429e-02
-5.793028066071967408e-02
-5.747657358306942910e-02
-5.948404864844858420e-02
-6.225157554368446200e-02
-6.319244880010246868e-02
-6.246690537684940203e-02
-6.278331214468965693e-02
-6.562195695400716011e-02
-6.907880310380171140e-02
-7.021282813216084273e-02
-6.874815989786972614e-02
-6.721691979862567945e-02
-6.731762308980532294e-02
-6.771319351402615982e-02
-6.630491305015273618e-02
-6.354254750278814923e-02
-6.206667443050428723e-02
-6.304765962618658071e-02
-6.429129506345365730e-02
-6.283294518019344466e-02
-5.869679150548934299e-02
-5.485834281721260752e-02
-5.332842193905215633e-02
-5.273228407277349983e-02
-5.064486202477017085e-02
-4.729532378930362269e-02
-4.549280839633809692e-02
-4.683193958126191658e-02
-4.941540002683461608e-02
-5.007433312132347769e-02
-4.797106899130829105e-02
-4.431162322487425254e-02
-3.758927388548763404e-02
-2.068413418805464810e-02
1.411731116538039732e-02
6.529080927703839743e-02
1.198672723827161335e-01
1.632558722180214028e-01
1.865125107960342588e-01
1.827236729621376510e-01
1.447002724763790660e-01
7.037569602887991382e-02
-3.271650438788328841e-02
-1.484065708204146961e-01
-2.558014342120101814e-01
-3.349227566420658331e-01
-3.729979514342192659e-01
-3.683165374551060078e-01
-3.289345801538933745e-01
-2.680284138427902474e-01
-2.000830089360535746e-01
-1.377350977244596320e-01
-8.803328044479102887e-02
-5.125315548261089038e-02
-2.447352663746163448e-02
-6.351389773977589304e-03
2.419577557440710791e-03
3.037880380350910237e-03
5.388911594346734724e-04
1.951501662664223424e-04
2.831600656589189358e-03
5.249804829765308822e-03
5.357767799826274047e-03
5.091751670674271590e-03
7.413552818099550246e-03
1.180661122712398092e-02
1.455287410604708120e-02
1.368726195967304160e-02
1.181273912056529651e-02
1.276897677401236941e-02
1.658829370450487506e-02
1.961217830330821976e-02
1.980312459641747624e-02
1.975716095048959953e-02
2.313203505969241291e-02
2.942312739096275553e-02
3.438472721291727097e-02
3.589478481315361291e-02
3.713573787951623961e-02
4.253699350652728750e-02
5.179487961111314820e-02
6.024753720112033251e-02
6.571952584695259225e-02
7.214403078067693764e-02
8.431324195093757579e-02
1.006001710557835743e-01
1.139843916952222036e-01
1.210303720788803439e-01
1.264522506558721227e-01
1.364686706782479164e-01
1.496706410689437050e-01
1.579086671339586245e-01
1.567697297343810803e-01
1.512957237646254116e-01
1.490691125059858957e-01
1.502975586081142234e-01
1.481078832482677077e-01
1.385275382683289480e-01
1.261397812128531304e-01
1.178305401972007671e-01
1.136599399177472269e-01
1.071173717439264927e-01
9.416078485925929997e-02
7.835051545318122423e-02
6.560071072533793513e-02
5.651044083052927935e-02
4.632463829811929446e-02
3.198297021494045378e-02
1.625149680924184437e-02
3.705918470755464877e-03
-5.176137524218082930e-03
-1.392004408685337813e-02
-2.460722236781476280e-02
-3.486882785449590960e-02
-4.124376820635547447e-02
-4.395786391531097959e-02
-4.663258036730530409e-02
-5.134257880248924155e-02
-5.586490894210385805e-02
-5.684922624988988926e-02
-5.449513842000824893e-02
-5.237064652390918673e-02
-5.257297850181413823e-02
-5.304352742455528680e-02
-5.071630468391782887e-02
-4.604391979001820623e-02
-4.263150347504437998e-02
-4.227535765594578332e-02
-4.236919408312547763e-02
-3.945704943082153915e-02
-3.415466229452310265e-02
-3.064908937499394304e-02
-3.117269681349685295e-02
-3.301612052594185553e-02
-3.212834233970612852e-02
-2.841525991009510865e-02
-2.560507396771122268e-02
-2.584037576684808379e-02
-2.676958569820642175e-02
-2.511745693639780286e-02
-2.157004197260445344e-02
-2.023008311409985049e-02
-2.311074610116936601e-02
-2.725557955018817480e-02
-2.857909540698452822e-02
-2.722373267305813749e-02
-2.719124397655436898e-02
-3.069889171956552421e-02
-3.515934754856472888e-02
-3.677502245559169380e-02
-3.556910631251386512e-02
-3.516744659727671918e-02
-3.780862035556617484e-02
-4.153233166250711039e-02
-4.312620926631380303e-02
-4.260802102909477806e-02
-4.322502669053798763e-02
-4.683025551584532598e-02
-5.116388216268019651e-02
-5.290793171055699351e-02
-5.215050975936089128e-02
-5.212395094348110103e-02
-5.457589553393199511e-02
-5.727164624583280794e-02
-5.705710037868894080e-02
-5.427859416873762055e-02
-5.259276933314308011e-02
-5.428458333158645011e-02
-5.754109709108456983e-02
-5.925339385215092070e-02
-5.924106086507199831e-02
-6.026415061048925881e-02
-6.396376328791222865e-02
-6.836417411562031865e-02
-7.028516725361677597e-02
-6.935582647384361255e-02
-6.821977034139628526e-02
-6.871096080794103500e-02
-6.953712153851576705e-02
-6.860102394189376840e-02
-6.637384665345202883e-02
-6.538260039259596867e-02
-6.643743399241869296e-02
-6.710604998938524135e-02
-6.471363846122454855e-02
-5.994122464605131095e-02
-5.624668739309454657e-02
-5.557931741445004681e-02
-5.608880060146786972e-02
-5.486115488544560104e-02
-5.183855008649063123e-02
-4.968203643694524274e-02
-4.991068479873253527e-02
-5.076296093485771488e-02
-4.957230134657070186e-02
-4.624954713918419391e-02
-4.287689575972591927e-02
-3.933971868996471999e-02
-3.036546184573352125e-02
-8.458167512784664499e-03
2.875992012458200575e-02
7.540398063683817487e-02
1.230602611532676804e-01
1.653304159975417242e-01
1.937060706918136144e-01
1.941827934374397158e-01
1.528071828691969780e-01
6.456894902869217412e-02
-6.169856033046658417e-02
-2.034812540969094530e-01
-3.302012026694315372e-01
-4.148138749878433895e-01
-4.451403313100800174e-01
-4.255480437375310787e-01
-3.699523565303565187e-01
-2.949582876177228585e-01
-2.158794258631030472e-01
-1.438033999246493000e-01
-8.457628761075230983e-02
-4.037443570796175885e-02
-1.177946523185385841e-02
2.074119050121697727e-03
4.882605077323354248e-03
2.817910149993774205e-03
1.358650326278548759e-03
2.292970698592133871e-03
4.253458070548887804e-03
6.127327095512780097e-03
8.810610202438035055e-03
1.342572805954436732e-02
1.895756472218040889e-02
2.281432761379020846e-02
2.393690851257285201e-02
2.407800943514021297e-02
2.542633918990491737e-02
2.787036618731861259e-02
2.953077442179427581e-02
2.987117659159452265e-02
3.091262523147353392e-02
3.477832382176926362e-02
4.077951534154797275e-02
4.608127999623515270e-02
4.953859597064791398e-02
5.334180816162134575e-02
6.008295718062145463e-02
6.914888582603295752e-02
7.745996296491711175e-02
8.405281050470868320e-02
9.184515026311938779e-02
1.036911350710746499e-01
1.179035846540053417e-01
1.296499979570877314e-01
1.372063827228083843e-01
1.442998163305530823e-01
1.549714155324586617e-01
1.676766882493521127e-01
1.765443844697461573e-01
1.787841069078698608e-01
1.779985369567393672e-01
1.788750280422131689e-01
1.807957761135511876e-01
1.788416390696807579e-01
1.708186562785192764e-01
1.603970316880982128e-01
1.522767815987081663e-01
1.463068908045629946e-01
1.381251412978295456e-01
1.251216349249411885e-01
1.093360949390522197e-01
9.405857642020418186e-02
7.964205581873259887e-02
6.390718067606364350e-02
4.600559114428930119e-02
2.801174346767822121e-02
1.249286031716310974e-02
-1.840472261850079061e-04
-1.156239125842398185e-02
-2.247988371127324081e-02
-3.193323478669157778e-02
-3.880842329879963248e-02
-4.370271715577667138e-02
-4.836168808703961153e-02
-5.356811196071836756e-02
-5.846200666835218995e-02
-6.195103723679082353e-02
-6.414900851511168289e-02
-6.606227013469159748e-02
-6.794625455172323414e-02
-6.885035989743384932e-02
-6.803433806885492152e-02
-6.620048781938406290e-02
-6.479130566638788280e-02
-6.412297442483411158e-02
-6.308095546520059438e-02
-6.078130698379535790e-02
-5.790976978143183573e-02
-5.605336952860687227e-02
-5.575041477570719106e-02
-5.590447132792650264e-02
-5.524432976707582821e-02
-5.385140141700417438e-02
-5.286427267126850293e-02
-5.274448371874729258e-02
-5.272219820963425230e-02
-5.208022263412695474e-02
-5.131325096267780328e-02
-5.161677131587832923e-02
-5.326415208569529325e-02
-5.520322466729249422e-02
-5.639291040061605864e-02
-5.704199424722339318e-02
-5.819240427304883667e-02
-6.012659963613398162e-02
-6.192846553057493320e-02
-6.271343586540928383e-02
-6.274865813246593982e-02
-6.310422103607307709e-02
-6.424281659687192114e-02
-6.549489381069695249e-02
-6.601592242525286536e-02
-6.589323755622084056e-02
-6.601434107156042841e-02
-6.682057676565922311e-02
-6.785276225740446976e-02
-6.858110948659823514e-02
-6.914438074372686316e-02
-7.008804976204222048e-02
-7.147354446485992829e-02
-7.269053719840695704e-02
-7.317672251970444575e-02
-7.308115385626814953e-02
-7.307055039189702672e-02
-7.346300775818259687e-02
-7.406479154229889117e-02
-7.483095439406689531e-02
-7.619983727676005181e-02
-7.868202139986571475e-02
-8.220736844878653860e-02
-8.608504000186026350e-02
-8.948090184417145654e-02
-9.184716217476207589e-02
-9.299083933909593758e-02
-9.271765749293073289e-02
-9.074216995927236740e-02
-8.710359024580868748e-02
-8.263984280636030300e-02
-7.890290130131008550e-02
-7.713817301549935612e-02
-7.736529643063805306e-02
-7.856197127011754766e-02
-7.957623788021020439e-02
-7.975658371621729970e-02
-7.885008836273046939e-02
-7.681672501284214638e-02
-7.385927099372954774e-02
-7.051474157873877102e-02
-6.755292133671123023e-02
-6.544656809173238221e-02
-6.410146332614588549e-02
-6.316858044549281126e-02
-6.242852453828104387e-02
-6.179711692795133993e-02
-6.086790463133298634e-02
-5.849257036989130576e-02
-5.274116018944413620e-02
-4.103873500672969299e-02
-1.935104838881132605e-02
1.818946721681752310e-02
7.482527907199978956e-02
1.440316201963964815e-01
2.071368691851107058e-01
2.384542355174819883e-01
2.154210160889165893e-01
1.285376766493138145e-01
-1.269253356420499412e-02
-1.794006007855597773e-01
-3.332323526418312643e-01
-4.447836794853967657e-01
-5.039764774694066585e-01
-5.139010909557821805e-01
-4.812494782983217645e-01
-4.146255043184627898e-01
-3.266321300539904438e-01
-2.327960548644908423e-01
-1.473760037162724634e-01
-7.997279520280850540e-02
-3.438155447557192379e-02
-8.877668516872355697e-03
1.992102702538384174e-03
4.518689062800312906e-03
3.489419530610216036e-03
1.672428189155805711e-03
6.726834766821732092e-04
1.423938478750219616e-03
4.007441619172824598e-03
7.595430895239368985e-03
1.109065865511751903e-02
1.422910363200874384e-02
1.762809530467446262e-02
2.162767543406945991e-02
2.546557491371298498e-02
2.791302514516610933e-02
2.883089178575820588e-02
2.949134122972740801e-02
3.119718598467718929e-02
3.396122367828624533e-02
3.694024820969074585e-02
4.018927555526688455e-02
4.503644119794353307e-02
5.236331326511056705e-02
6.100818647733002864e-02
6.874859385251555488e-02
7.532785964794666556e-02
8.328690437187051543e-02
9.498555796960564401e-02
1.093808363328619276e-01
1.230411283733278682e-01
1.347068215802604829e-01
1.468538508221399475e-01
1.617603667497815867e-01
1.772618680827246773e-01
1.883183225545771999e-01
1.932218799611657434e-01
1.956785904378696150e-01
1.996988001373986854e-01
2.042450950323163039e-01
2.046530838679827546e-01
1.991663101504536348e-01
1.914426309372098400e-01
1.857468167929660630e-01
1.815221058860214676e-01
1.743194025516921764e-01
1.618407545945767800e-01
1.466090144971246845e-01
1.321027508125653949e-01
1.183150301161460249e-01
1.024139558210134526e-01
8.312941136358542593e-02
6.255749693492031194e-02
4.356209750266862302e-02
2.691429783666063336e-02
1.144351501184315278e-02
-3.649517542202107556e-03
-1.772353804650653175e-02
-2.985407576589155232e-02
-4.013618881277336570e-02
-4.944526419650840943e-02
-5.812516141623014221e-02
-6.557519152297724974e-02
-7.103369139296447643e-02
-7.435608807697530187e-02
-7.604316447780068433e-02
-7.656071727293967122e-02
-7.603046719265429965e-02
-7.465802626359815952e-02
-7.311640506976690990e-02
-7.216064645322378679e-02
-7.177970268248537455e-02
-7.124206066634675150e-02
-7.002251800130246395e-02
-6.841206960946391580e-02
-6.706777739704328223e-02
-6.598346433760698959e-02
-6.451015898358997136e-02
-6.238418402471576640e-02
-6.023760359798685515e-02
-5.897965345740488474e-02
-5.878212133360644076e-02
-5.896128136843276080e-02
-5.874339636007516741e-02
-5.806794138545437467e-02
-5.760515759184481333e-02
-5.780964014719461308e-02
-5.840269658699973054e-02
-5.890420148407085610e-02
-5.935513907549097579e-02
-6.028812496479521443e-02
-6.186785679963421880e-02
-6.353617202890701754e-02
-6.465744185670024846e-02
-6.523449260526717475e-02
-6.579291989734215029e-02
-6.656770850535223549e-02
-6.728136435313977759e-02
-6.765284301489143948e-02
-6.776877177866619251e-02
-6.789067742790375060e-02
-6.797540012287300870e-02
-6.782754532016033178e-02
-6.759805733100568426e-02
-6.777962130974718447e-02
-6.873575202802703621e-02
-7.027576116761255487e-02
-7.189266949157466224e-02
-7.326304387445936595e-02
-7.441297062420110242e-02
-7.550699061265472856e-02
-7.648347712301933887e-02
-7.719804055511295116e-02
-7.780133738396755039e-02
-7.870335659284605212e-02
-8.016650408523365301e-02
-8.190558907112160947e-02
-8.330050612240547103e-02
-8.388819809703124131e-02
-8.350941193520111661e-02
-8.222173950877775805e-02
-8.019532095572046160e-02
-7.776514475222107148e-02
-7.545703271459952566e-02
-7.383571985798970116e-02
-7.305138311275638507e-02
-7.224631702129086230e-02
-6.998265620753615912e-02
-6.587754319071392750e-02
-6.170072706370677285e-02
-6.006886679424722209e-02
-6.153002417457936746e-02
-6.368361013856616015e-02
-6.380031636252075922e-02
-6.181306153495136346e-02
-5.987701001411438462e-02
-5.910898315501242339e-02
-5.810049981856543755e-02
-5.516061828969387459e-02
-5.088962886977327349e-02
-4.657740853292477445e-02
-3.917308525298685007e-02
-1.975275771423312676e-02
1.947959467965576508e-02
7.489568967882412331e-02
1.311398994265574880e-01
1.724346661942276482e-01
1.889240567351347377e-01
1.729002804508125157e-01
1.185721977036263836e-01
2.761026343310629683e-02
-8.925959679818254444e-02
-2.147712125389132087e-01
-3.277520872929418072e-01
-4.071165203608485550e-01
-4.382294926282154224e-01
-4.188355467091603446e-01
-3.596157105758893691e-01
-2.788707986146980455e-01
-1.960066074408372550e-01
-1.258952124618571977e-01
-7.481485594405726247e-02
-4.089433089616520411e-02
-1.922883146416692890e-02
-6.923850268041487066e-03
-3.141333562061060514e-03
-5.288364829956759827e-03
-7.891511122675276546e-03
-6.538109072670689192e-03
-1.828886385384531632e-03
2.141091153899515875e-03
3.315266558224810867e-03
4.042452754170033913e-03
7.394098884515754033e-03
1.258639644395964652e-02
1.577189195535194655e-02
1.529627932441279814e-02
1.401932430421248821e-02
1.547717601886730576e-02
1.914612897618905851e-02
2.140239423290371534e-02
2.109425636140277449e-02
2.171890725844244363e-02
2.694405829053567181e-02
3.539144765504476098e-02
4.205588536680934797e-02
4.509363987929992934e-02
4.848113070201032215e-02
5.659253027179436679e-02
6.792893173506753257e-02
7.693573063417769031e-02
8.212955590638437720e-02
8.886822281285630676e-02
1.023095689708833772e-01
1.197777464597550301e-01
1.333196746142139011e-01
1.399745233475769846e-01
1.454253423071431850e-01
1.557216300061607106e-01
1.682637398792927730e-01
1.745380195946631685e-01
1.715799883934424619e-01
1.661228760252912995e-01
1.656655951119465342e-01
1.686416208230133718e-01
1.667776235930098772e-01
1.565116539207131729e-01
1.434986635564277913e-01
1.346008000615607769e-01
1.288870575526660789e-01
1.194104942326107976e-01
1.029725403069444156e-01
8.421976642505112076e-02
6.919908493251636372e-02
5.787214847815967678e-02
4.523744890833542032e-02
2.887312529370475445e-02
1.216065420843082112e-02
-5.528310547900094907e-04
-9.447305262213323562e-03
-1.822139888627813398e-02
-2.849897136235213235e-02
-3.762600550733286031e-02
-4.261632837106213434e-02
-4.452361972023133330e-02
-4.721612661450469428e-02
-5.221571955602788417e-02
-5.682520517406469684e-02
-5.791380574708895890e-02
-5.611827474690495032e-02
-5.484804586961239403e-02
-5.546719798191529494e-02
-5.555201705234674714e-02
-5.254084161143240950e-02
-4.766779623838798829e-02
-4.475785406940696598e-02
-4.521603061500883980e-02
-4.620486382603095077e-02
-4.459747746547093605e-02
-4.128354960337876634e-02
-3.995174622726163638e-02
-4.189002806474612095e-02
-4.407936052646455050e-02
-4.315518629542208773e-02
-3.984008680792289203e-02
-3.784374825189382174e-02
-3.863709299235967842e-02
-3.956365183554047538e-02
-3.778322500823502739e-02
-3.446328284451266599e-02
-3.350231179380955271e-02
-3.627415182974511043e-02
-3.964405164642129109e-02
-3.998108952157014562e-02
-3.780556526928408045e-02
-3.700756616726993964e-02
-3.965482744667184201e-02
-4.352039718867603546e-02
-4.541220114889552018e-02
-4.545271666968458968e-02
-4.651418411585028778e-02
-4.975985645877317731e-02
-5.281784748798748486e-02
-5.306143550253192287e-02
-5.137808252056003111e-02
-5.119827293954731795e-02
-5.389810952028448177e-02
-5.705559737040302726e-02
-5.787773794142883621e-02
-5.694755894500289073e-02
-5.726750193609933537e-02
-5.999445926771129756e-02
-6.292239797515566946e-02
-6.362550379196788009e-02
-6.279751095262672833e-02
-6.327032311632052597e-02
-6.592431476242066601e-02
-6.812212972921344312e-02
-6.685781654789288431e-02
-6.262908804030942189e-02
-5.899549953863758578e-02
-5.825976812906644153e-02
-5.918739553808455289e-02
-5.946238578878157433e-02
-5.900738082583137367e-02
-5.967693469108076298e-02
-6.193483572294045114e-02
-6.350807280285183931e-02
-6.218316803038367868e-02
-5.894357445752462787e-02
-5.691204578328160069e-02
-5.729669782368557174e-02
-5.797401863425941104e-02
-5.646429582940928893e-02
-5.324868128163329217e-02
-5.107717069474554394e-02
-5.105398695178781088e-02
-5.093646595428050206e-02
-4.797943178821140187e-02
-4.190821727688670562e-02
-3.244608979436608420e-02
-1.398646488756585815e-02
2.272913756319117073e-02
7.973189542661290874e-02
1.431935739175000666e-01
1.890173134404569966e-01
1.976631889092795580e-01
1.621551968698687618e-01
8.719076858183694156e-02
-1.271822773355535396e-02
-1.174858080661303761e-01
-2.097483558903377732e-01
-2.801956248241772029e-01
-3.260016549108135653e-01
-3.462534442698793624e-01
-3.398617833132289712e-01
-3.075604062672795957e-01
-2.543811282938399643e-01
-1.897777009579071916e-01
-1.259063986908309785e-01
-7.363954862774363397e-02
