-4.131288232738537718e-08
-3.524414875510778808e-07
-1.446416151396124134e-06
-3.834441937967174467e-06
-7.466392290817081841e-06
-1.155301876712645627e-05
-1.506533279968782258e-05
-1.742610411891371203e-05
-1.871394866128763280e-05
-1.925010956932793221e-05
-1.917057334470295663e-05
-1.850418552983909215e-05
-1.747103359096524759e-05
-1.644131885030328778e-05
-1.562359134389697173e-05
-1.497602125818025802e-05
-1.442194035707936583e-05
-1.404693996032908356e-05
-1.400277756905795172e-05
-1.424456088294773853e-05
-1.451234516518702677e-05
-1.459522749994480633e-05
-1.454175179859030923e-05
-1.454699542858071705e-05
-1.465633907538417449e-05
-1.471129575308943336e-05
-1.458584142915625683e-05
-1.438188296734691255e-05
-1.431404375002706797e-05
-1.442029357380471699e-05
-1.451906272182046175e-05
-1.445695675291985201e-05
-1.435410110852256398e-05
-1.455669864242831222e-05
-1.523656888177755087e-05
-1.615699397349317954e-05
-1.700111470273914374e-05
-1.775148106881193586e-05
-1.856565574948309451e-05
-1.943004664512160853e-05
-2.015953162208763445e-05
-2.068186632777814510e-05
-2.107504556798971018e-05
-2.129373391426407262e-05
-2.109903602770039742e-05
-2.040370266313406924e-05
-1.953084907864594203e-05
-1.899449939129412712e-05
-1.912599589693640071e-05
-1.993325568252484213e-05
-2.117699375211633749e-05
-2.252041649281572120e-05
-2.362311225815551041e-05
-2.411664626905703207e-05
-2.367251585461393462e-05
-2.231821730804596651e-05
-2.059800789151625887e-05
-1.921098862917490098e-05
-1.846342064927487909e-05
-1.814868641423785409e-05
-1.797343075145174893e-05
-1.794588220620711610e-05
-1.827595024850801051e-05
-1.907950120286228880e-05
-2.026608063837480455e-05
-2.160305084244752740e-05
-2.282948575665899515e-05
-2.370798070576316530e-05
-2.400636365494986603e-05
-2.360748111870590289e-05
-2.270678313244995684e-05
-2.174732776929687612e-05
-2.108977713045489472e-05
-2.072653271417745211e-05
-2.032796217228126874e-05
-1.966810907780244978e-05
-1.893616102405574591e-05
-1.850481441210851638e-05
-1.850319405969574427e-05
-1.878376718572635396e-05
-1.921724739574673035e-05
-1.980754035114507645e-05
-2.056562260419538289e-05
-2.142578971999623398e-05
-2.226830939283361264e-05
-2.297222449257163665e-05
-2.345787090421830223e-05
-2.370450014483975048e-05
-2.374446252616402460e-05
-2.364305594133841846e-05
-2.347453541448102346e-05
-2.330238016751269933e-05
-2.316799886268313825e-05
-2.308832057918299457e-05
-2.306014390494581361e-05
-2.306799454189280114e-05
-2.309237098039716395e-05
-2.311617379402147512e-05
-2.312830577213752882e-05
-2.312448982832673470e-05
-2.310604604256812986e-05
-2.307764013711605043e-05
-2.300362238744596991e-05
-2.274297066547755758e-05
-2.216009972702638527e-05
-2.135526323736276628e-05
-2.064425828052855039e-05
-2.030985096343050050e-05
-2.044642226583554570e-05
-2.096695964475648417e-05
-2.168190800237877524e-05
-2.238806125098110708e-05
-2.293320778536656859e-05
-2.324488923948209434e-05
-2.332712068241526223e-05
-2.323684520859987859e-05
-2.305344501064223543e-05
-2.285192961931620638e-05
-2.268579277543209381e-05
-2.258090583229460066e-05
-2.253842222201648792e-05
-2.254297113801616997e-05
-2.253096624848241608e-05
-2.233546239070785443e-05
-2.180297616414921398e-05
-2.102577852885306845e-05
-2.032028524054761432e-05
-1.997539405026734521e-05
-2.009366919428485067e-05
-2.059551953197184094e-05
-2.129639021028365163e-05
-2.199518507340411378e-05
-2.253934947395952880e-05
-2.285455153196828417e-05
-2.294240663646811770e-05
-2.285773083410216441e-05
-2.267850868476086382e-05
-2.243788166155937823e-05
-2.204361068273488552e-05
-2.138348528095217714e-05
-2.055852346716225115e-05
-1.987025454078268893e-05
-1.953966146594862498e-05
-1.949597968468486656e-05
-1.950004568887660138e-05
-1.945525524793151079e-05
-1.947489164026955282e-05
-1.965398257602253584e-05
-1.987622391998916636e-05
-1.992687025760348361e-05
-1.977709701166796615e-05
-1.962129793641344589e-05
-1.962478474004030420e-05
-1.971698568940756635e-05
-1.970126868627662388e-05
-1.954421203546598219e-05
-1.942189925957008397e-05
-1.951835707132716223e-05
-1.988930813156138914e-05
-2.046423398504722507e-05
-2.110589643559519026e-05
-2.167583294710122746e-05
-2.207940437063628635e-05
-2.228287066892216354e-05
-2.230691154144059867e-05
-2.220646347946354904e-05
-2.204717868636384934e-05
-2.188617400162735645e-05
-2.176092928174935831e-05
-2.168667388518107135e-05
-2.166020680953578749e-05
-2.166707118864328566e-05
-2.164783090813718753e-05
-2.144075160000557216e-05
-2.089691249253384568e-05
-2.011153952491014820e-05
-1.940217837650539813e-05
-1.905735997519144727e-05
-1.917838850703003915e-05
-1.968414871320159397e-05
-2.038878105210762889e-05
-2.109036654187364522e-05
-2.163605829709951288e-05
-2.195165787735546057e-05
-2.203916058166182230e-05
-2.195382689077337719e-05
-2.177401357214741245e-05
-2.157440336766268692e-05
-2.140870873955945101e-05
-2.130332328788431945e-05
-2.125998809942340284e-05
-2.126381137971138010e-05
-2.125149036254894694e-05
-2.101484832373221680e-05
-2.025445162299673401e-05
-1.892376458214369283e-05
-1.743819508914061725e-05
-1.636148362306486870e-05
-1.593441891849931287e-05
-1.603477579199137344e-05
-1.649156058769415628e-05
-1.718999922317570935e-05
-1.787164867334368275e-05
-1.803871505292163426e-05
-1.716177199946270225e-05
-1.506143382737710532e-05
-1.214225450322095745e-05
-9.191559253493186319e-06
-6.933412712122335198e-06
-5.784178812596063268e-06
-5.922391217358592294e-06
-7.391053320788333059e-06
-1.001902191323088371e-05
-1.334556337265410201e-05
-1.674145314477079575e-05
-1.962631009782074456e-05
-2.163168495010900781e-05
-2.265866881474497580e-05
-2.284070696401525080e-05
-2.245113347470424284e-05
-2.179896683614061803e-05
-2.114563184972743131e-05
-2.061738595390422496e-05
-2.009219557979268037e-05
-1.926772884757782503e-05
-1.803724107818726629e-05
-1.673396370598123108e-05
-1.584629474792588908e-05
-1.552235562774218118e-05
-1.547176903993345811e-05
-1.538753594192829506e-05
-1.531374322886833257e-05
-1.547812328591397201e-05
-1.586852827069785778e-05
-1.615388331808819845e-05
-1.608455690989351005e-05
-1.581763817182008084e-05
-1.570494675599885562e-05
-1.583576610233034383e-05
-1.594044871623750295e-05
-1.578911687155895032e-05
-1.552629196442339871e-05
-1.547326161560734712e-05
-1.568484844355171048e-05
-1.586325784656586289e-05
-1.576189457755811503e-05
-1.547910035716471242e-05
-1.519448762065801791e-05
-1.483332282227889991e-05
-1.420694300319589470e-05
-1.339301229982936825e-05
-1.277863891699841982e-05
-1.264064086878091626e-05
-1.281727056240598016e-05
-1.288713054217000700e-05
-1.257618647679476131e-05
-1.197825064409364484e-05
-1.139516007241385583e-05
-1.098471793084641850e-05
-1.066670223791036501e-05
-1.034306971114267851e-05
-1.009778466766689157e-05
-1.005686018286749048e-05
-1.005563827904955774e-05
-9.724217385185970176e-06
-8.934120197327901738e-06
-7.920810735256754445e-06
-6.991086246617781095e-06
-6.198288076255377852e-06
-5.325219734172842231e-06
-4.253852604821476759e-06
-3.242651434934064844e-06
-2.684570855546876170e-06
-2.687700242916849575e-06
-3.059359280073142541e-06
-3.660838921036229088e-06
-4.599868821319211222e-06
-6.000237026698743748e-06
-7.688433144071274330e-06
-9.233296300901591073e-06
-1.028349904561260188e-05
-1.082352247393433526e-05
-1.106870213540579762e-05
-1.114804658305439892e-05
-1.105699231004543361e-05
-1.092356456324664858e-05
-1.111021230254536121e-05
-1.192166390102795204e-05
-1.322685534795064907e-05
-1.448608869617955295e-05
-1.525148109811011285e-05
-1.555465456891895861e-05
-1.571374803645779185e-05
-1.586147701450969566e-05
-1.581631966356217698e-05
-1.544627978239677856e-05
-1.497663371365914124e-05
-1.477818112792607982e-05
-1.492230656561055431e-05
-1.510196077236847797e-05
-1.504672610692662939e-05
-1.486899434000903665e-05
-1.487175986004058827e-05
-1.510539036131675254e-05
-1.527790333847814662e-05
-1.515377764963127269e-05
-1.488434550494861406e-05
-1.480415023903345958e-05
-1.498208881481956321e-05
-1.513133867077172765e-05
-1.501139066192623547e-05
-1.476318634569517209e-05
-1.471000117447713451e-05
-1.491179874073266845e-05
-1.507667315399731896e-05
-1.496288692135002770e-05
-1.471301521108684863e-05
-1.465343409932290621e-05
-1.484737507975151924e-05
-1.500546637214459883e-05
-1.488736565722921496e-05
-1.463593117322632151e-05
-1.457701496703419146e-05
-1.477292720470562127e-05
-1.493335057793048497e-05
-1.481722552883508602e-05
-1.456702900996813168e-05
-1.450855200284278216e-05
-1.470427072109808130e-05
-1.486414089692375701e-05
-1.474737608928031498e-05
-1.449665586170774889e-05
-1.443787493251096203e-05
-1.463352119830949883e-05
-1.479349830266692991e-05
-1.467693908449426399e-05
-1.442644434414856490e-05
-1.436785167567680245e-05
-1.456362088995318953e-05
-1.472365396515291394e-05
-1.460709994187876871e-05
-1.435658342856183815e-05
-1.429796469686400324e-05
-1.449371963073350267e-05
-1.465375777030270852e-05
-1.453722814745201411e-05
-1.428675036766363274e-05
-1.422817769601854238e-05
-1.442397949758976442e-05
-1.458406079957521123e-05
-1.446756861065458075e-05
-1.421712267894578270e-05
-1.415857780472149908e-05
-1.435440541070609438e-05
-1.451451239499365983e-05
-1.439804703058465917e-05
-1.414762960297110580e-05
-1.408911483120787336e-05
-1.428497366952644507e-05
-1.444511241296429419e-05
-1.432867879844821350e-05
-1.407829275809161651e-05
-1.401980886943641752e-05
-1.421569812158600404e-05
-1.437586695185140358e-05
-1.425946327356138600e-05
-1.400910717218447660e-05
-1.395065332379025324e-05
-1.414657275437179099e-05
-1.430677188792039379e-05
-1.419039859474925262e-05
-1.394007290882544984e-05
-1.388164946242161177e-05
-1.411891213646066100e-05
-1.450764442135180657e-05
-1.494564461142187137e-05
-1.547636994505869630e-05
-1.610938333344260254e-05
-1.666428893895776657e-05
-1.690083417538920234e-05
-1.680244290929824619e-05
-1.655996286340919433e-05
-1.628132038938753836e-05
-1.594572974828644747e-05
-1.562363458097797776e-05
-1.551205439292215613e-05
-1.571317684591419116e-05
-1.606763819255736098e-05
-1.629805121708193205e-05
-1.631823014386335661e-05
-1.628497172671143745e-05
-1.634971439561400418e-05
-1.644785333748689500e-05
-1.640062603979704133e-05
-1.619591255115144157e-05
-1.602796005411108058e-05
-1.605093013913536104e-05
-1.617874637529048400e-05
-1.620040696874688719e-05
-1.607257663448504221e-05
-1.596692023167755074e-05
-1.602649474822801428e-05
-1.616453833553523740e-05
-1.617640766308998390e-05
-1.602812953184232046e-05
-1.590029500217306357e-05
-1.594229489703952112e-05
-1.607035535397355897e-05
-1.607984199440959575e-05
-1.593482291302081064e-05
-1.581313834970945822e-05
-1.586161646793170788e-05
-1.599470713085309915e-05
-1.600697765407088803e-05
-1.586254954401441174e-05
-1.573986479135021735e-05
-1.578655975662368295e-05
-1.591781996572086123e-05
-1.592871047709508141e-05
-1.578356493196099775e-05
-1.566079415751385839e-05
-1.570785082918985166e-05
-1.583968357887748175e-05
-1.585114665237862032e-05
-1.570643455177962920e-05
-1.554258933036168996e-05
-1.531988719403006076e-05
-1.458617930835105715e-05
-1.276383457443051205e-05
-9.768071553745764395e-06
-6.250240687087430522e-06
-3.185257316719134765e-06
-1.343694795858054765e-06
-1.137837303673317330e-06
-2.665544824320228542e-06
-5.667066290038949782e-06
-9.521769954956811065e-06
-1.343915520572887020e-05
-1.672308187590872450e-05
-1.895319381201311638e-05
-2.003703090786127005e-05
-2.015318386547420190e-05
-1.963514970988146913e-05
-1.884714339137278502e-05
-1.808861428651000559e-05
-1.754418904669176329e-05
-1.723661160940316347e-05
-1.698943948441191212e-05
-1.657961619747838286e-05
-1.600846744580485545e-05
-1.546964110346479049e-05
-1.505202057129233418e-05
-1.469737604341911583e-05
-1.442994343747565604e-05
-1.436127443751243244e-05
-1.441377979348662957e-05
-1.422831211835979325e-05
-1.347457518003211429e-05
-1.224802240874880704e-05
-1.105698592119514733e-05
-1.032996477021525234e-05
-1.002952070776957952e-05
-9.842528030733817284e-06
-9.647337156203351059e-06
-9.637772484549223786e-06
-9.955816712427627223e-06
-1.038208948121510947e-05
-1.054746900817283669e-05
-1.037903058291885228e-05
-1.018055489095780033e-05
-1.021889219242772978e-05
-1.037880571058262591e-05
-1.035566635537050644e-05
-1.009869188367488352e-05
-9.900362052757576202e-06
-9.997168238774265146e-06
-1.023880979775104800e-05
-1.029154885608656999e-05
-1.008693656420697251e-05
-9.911891973476973062e-06
-1.000676372232046556e-05
-1.023032159899715165e-05
-1.025899149320159120e-05
-1.003258170803765698e-05
-9.842875521958241447e-06
-9.890276231859284278e-06
-9.886382640636035807e-06
-9.324940986637042140e-06
-8.054778938995023989e-06
-6.397096992808449977e-06
-4.795650109629870492e-06
-3.473197872949595887e-06
-2.438754768077460827e-06
-1.733470592888278847e-06
-1.486884865706612411e-06
-1.716705805408251035e-06
-2.181546941489946850e-06
-2.538721394977552505e-06
-2.660524860577530520e-06
-2.686052933557965848e-06
-2.809100127830591255e-06
-3.123214745384655058e-06
-3.645657367818308499e-06
-4.466519060756371233e-06
-5.757465852685556855e-06
-7.472754974402508561e-06
-9.159499555085020412e-06
-1.026784858474841060e-05
-1.064621880835156046e-05
-1.062297695005853274e-05
-1.056198342540851993e-05
-1.051582105533330747e-05
-1.044307302410087018e-05
-1.051486097427205174e-05
-1.096496812531195328e-05
-1.171596715066315712e-05
-1.235157683436765133e-05
-1.255403607944100316e-05
-1.244698279058554037e-05
-1.238409947058618208e-05
-1.248167201726696096e-05
-1.250800681365699219e-05
-1.226932964339603751e-05
-1.193608715554071962e-05
-1.184224952563909130e-05
-1.204337520113461800e-05
-1.223435110548880927e-05
-1.215783798575234305e-05
-1.194325378511120275e-05
-1.190882244541792205e-05
-1.211502628109726647e-05
-1.227401571739342380e-05
-1.214939327846007236e-05
-1.188853986252445119e-05
-1.182104198549332483e-05
-1.201145869053156905e-05
-1.217015977841359217e-05
-1.205556439602125910e-05
-1.180896527804186754e-05
-1.175483757554683698e-05
-1.195459473350242196e-05
-1.211757128658945198e-05
-1.200281150728282939e-05
-1.175316766195226819e-05
-1.169488826548038429e-05
-1.189084313289823007e-05
-1.205123772407736202e-05
-1.193537585938568364e-05
-1.168589880232203589e-05
-1.162858801808734972e-05
-1.182579794045764859e-05
-1.198731989062400359e-05
-1.187221735440911318e-05
-1.162306805432750878e-05
-1.156572300908155826e-05
-1.176267607696030845e-05
-1.192386809842073438e-05
-1.180848011450053058e-05
-1.155915593851633715e-05
-1.150176164091733447e-05
-1.169876855868180159e-05
-1.186007603166241464e-05
-1.174482179551956000e-05
-1.149561635445939968e-05
-1.143830767210635527e-05
-1.163536368944520932e-05
-1.179669093646739131e-05
-1.168143946810648147e-05
-1.143223231043464743e-05
-1.137492684779005199e-05
-1.157199596146258542e-05
-1.173334688851619861e-05
-1.161812741445509843e-05
-1.132764403544714313e-05
-1.104187344509646882e-05
-1.072594832841880703e-05
-1.033481446516103111e-05
-1.008256167061595126e-05
-1.025551407299565982e-05
-1.081339379142546266e-05
-1.135152925190873759e-05
-1.154012753089368707e-05
-1.147597673809606456e-05
-1.148172093736788308e-05
-1.164712666285268032e-05
-1.172343875597631848e-05
-1.151029505151939180e-05
-1.118009661478845184e-05
-1.107387918091999662e-05
-1.125581445304747926e-05
-1.142820599945867127e-05
-1.133843355299674887e-05
-1.111764129142086276e-05
-1.108336317100025662e-05
-1.129397835563930080e-05
-1.145914679346828039e-05
-1.134036946283691626e-05
-1.108372595871798219e-05
-1.101836614728490753e-05
-1.120909603752070661e-05
-1.136691983453428818e-05
-1.125098292263356204e-05
-1.100317727011575286e-05
-1.094833863287526648e-05
-1.114799040711015014e-05
-1.131138324294720795e-05
-1.119737126737412661e-05
-1.094859559024825008e-05
-1.089113425090627797e-05
-1.108775747645705588e-05
-1.124864364976319068e-05
-1.113312436446384122e-05
-1.088389768229102014e-05
-1.082680634937113372e-05
-1.102425320774285365e-05
-1.118605698555061087e-05
-1.107128763495438423e-05
-1.082251385398044773e-05
-1.076556974460832492e-05
-1.096293140992441831e-05
-1.112452596863356977e-05
-1.100952694684769567e-05
-1.076057668071117823e-05
-1.074485701222296168e-05
-1.117072137883196411e-05
-1.188672467543756863e-05
-1.255284571162692532e-05
-1.299540530780705130e-05
-1.329738489315955993e-05
-1.357109248636509791e-05
-1.375070911798993614e-05
-1.368492391962236602e-05
-1.340299472277385137e-05
-1.309898206915994220e-05
-1.281220570026921656e-05
-1.233466542274986130e-05
-1.155766477505423649e-05
-1.074760474844794076e-05
-1.030778304391863965e-05
-1.032000141792581276e-05
-1.046463400381649438e-05
-1.044298689336205449e-05
-1.033379208278528587e-05
-1.041017288597566727e-05
-1.070209991639341346e-05
-1.086702044420794271e-05
-1.048252889979349784e-05
-9.380580112488909412e-06
-7.677873447358844376e-06
-5.499721952105143103e-06
-2.792770440869880914e-06
3.085657078594454815e-07
2.993035500141764093e-06
4.060364980863471034e-06
2.762532913267246181e-06
-7.373890925104514379e-07
-5.543500451219709755e-06
-1.049459465239676288e-05
-1.459827227219075167e-05
-1.728398559598499722e-05
-1.845325027324785997e-05
-1.837857090631943457e-05
-1.752967776077995796e-05
-1.635805307095399832e-05
-1.506561815108789883e-05
-1.359268227291082762e-05
-1.196053767111441557e-05
-1.052262422755887293e-05
-9.711573198112627306e-06
-9.584167938523806892e-06
-9.758859610397005704e-06
-9.861137956881589728e-06
-9.900615854260829223e-06
-1.010124109628350865e-05
-1.046829668087076684e-05
-1.065631247955011825e-05
-1.029599692719431587e-05
-9.424765726187414862e-06
-8.502894802244650150e-06
-7.936459492873324182e-06
-7.693245924848890943e-06
-7.485589475947135299e-06
-7.226183902236688744e-06
-7.141435632953469002e-06
-7.397029655665150591e-06
-7.785672956938559513e-06
-7.939722886922782880e-06
-7.780429337149332000e-06
-7.602459834977159486e-06
-7.663741080054550550e-06
-7.842539485608489687e-06
-7.831003224627404834e-06
-7.578115262188146357e-06
-7.378149061598328527e-06
-7.470262248455909270e-06
-7.706705685833953513e-06
-7.755557044794781545e-06
-7.507914781537401621e-06
-7.104827998889666932e-06
-6.606124155807297581e-06
-5.823072051694903009e-06
-4.567691469275289714e-06
-2.975432941853579966e-06
-1.424336644873062703e-06
-1.280090322317507838e-07
1.017642914469843493e-06
2.107560762143344357e-06
2.937285224553970982e-06
3.208006042731892510e-06
2.948927027211351388e-06
2.569538996004833729e-06
2.423051692288991791e-06
2.448797546594698394e-06
2.363465720162288613e-06
2.111092334028127776e-06
1.963283179705774089e-06
2.130887640675194798e-06
2.441507116889828251e-06
2.547362405671447521e-06
2.374895495579421974e-06
2.213114137011353174e-06
2.308651431465234242e-06
2.527695961470420522e-06
2.511603973525703934e-06
2.016843528985130908e-06
1.051943064468543030e-06
-2.229402680651850906e-07
-1.723969968554994874e-06
-3.504973882912660449e-06
-5.477341977768443717e-06
-7.252681407661032168e-06
-8.491471818928135484e-06
-9.258112268261609049e-06
-9.849007382226706621e-06
-1.035562781142913547e-05
-1.056395035564680241e-05
-1.033236750911673993e-05
-9.900285239375142661e-06
-9.668653143711066614e-06
-9.744232904392776540e-06
-9.851070777304899448e-06
-9.739750619800752789e-06
-9.531966839779309331e-06
-9.530072596345230874e-06
-9.777469740424260075e-06
-9.972856267039679806e-06
-9.872244876449841255e-06
-9.621243874831651686e-06
-9.551952406160236318e-06
-9.733611973055252372e-06
-9.881490851397094254e-06
-9.757779685255933426e-06
-9.505822145659171920e-06
-9.450477553149066551e-06
-9.652343495983166195e-06
-9.819357051793325671e-06
-9.709142037154397010e-06
-9.463481974547738245e-06
-9.408064836692401681e-06
-9.605680110659229066e-06
-9.766790620393243187e-06
-9.651113942632089636e-06
-9.401701431848858220e-06
-9.344636288940592599e-06
-9.542425225376997239e-06
-9.704873864296412498e-06
-9.590965239066905393e-06
-9.343154868462196172e-06
-9.287175582600736451e-06
-9.485436233733792578e-06
-9.647836516286237090e-06
-9.533555901454741170e-06
-9.285263157676598836e-06
-9.228860369581367394e-06
-9.426852883273131471e-06
-9.589163938632054156e-06
-9.474942325313533291e-06
-9.226798267775634921e-06
-9.170572042153487383e-06
-9.368720998968525337e-06
-9.531141897766449560e-06
-9.416978088303909421e-06
-9.168849646689052074e-06
-9.112614247746926693e-06
-9.310747126845908637e-06
-9.473158628917392214e-06
-9.358999341949916673e-06
-9.110890521401683468e-06
-9.054686718051355810e-06
-9.252858010131605944e-06
-9.415309575922838149e-06
-9.301188165219263944e-06
-9.053113063583843122e-06
-8.996938593832570620e-06
-9.195135814763582372e-06
-9.357611429508467786e-06
-9.243513678004105098e-06
-8.995462928090750988e-06
-8.939314036087792208e-06
-9.137538094294850988e-06
-9.300041500700456526e-06
-9.185972045430505276e-06
-8.937949667239658943e-06
-8.881828917888866210e-06
-9.080080745983387072e-06
-9.242611549105891503e-06
-9.128569211648728511e-06
-8.880573804762390209e-06
-8.824480003565720972e-06
-9.022758842189398921e-06
-9.185316756678797985e-06
-9.071301628892551071e-06
-8.823333501045501926e-06
-8.767267009371558598e-06
-8.965573152595801484e-06
-9.128158342801122056e-06
-9.014170451626510975e-06
-8.766229522777493416e-06
-8.710190201322356578e-06
-8.908523497385257187e-06
-9.071135833196248351e-06
-8.957175087094085375e-06
-8.709261305478332546e-06
-8.653249132771900635e-06
-8.851609576416594619e-06
-9.014249055308952503e-06
-8.900315444885899746e-06
-8.652428789679948587e-06
-8.596443733412473397e-06
-8.794831283774442364e-06
-8.957497860474869188e-06
-8.843591339925290686e-06
-8.595731767488309691e-06
-8.539773787405805706e-06
-8.738188407550721786e-06
-8.900882047543865006e-06
-8.787002583553275622e-06
-8.539170060658727085e-06
-8.483239122866637291e-06
-8.681680777906810890e-06
-8.844401445355080897e-06
-8.730549001411168293e-06
-8.482743491229177059e-06
-8.426839558899051010e-06
-8.625308212218867345e-06
-8.788055870805264045e-06
-8.674230410870347407e-06
-8.426451877558912518e-06
-8.370574914939913719e-06
-8.569070530788397381e-06
-8.731845144702841101e-06
-8.618046632885332468e-06
-8.370295040478857308e-06
-8.314445011556694911e-06
-8.512967553901398056e-06
-8.675769087119357319e-06
-8.561997487419053697e-06
-8.314272799947448986e-06
-8.258449668779426758e-06
-8.456999101697417818e-06
-8.619827518306826797e-06
-8.506082794815080980e-06
-8.258384976368566185e-06
-8.202588707042304895e-06
-8.442477876946936945e-06
-8.833835981603323776e-06
-9.274461316462400960e-06
-9.807811118137104380e-06
-1.044344829460118830e-05
-1.095966412261148785e-05
-1.097032893755286017e-05
-1.032021618546115909e-05
-9.340649279787839444e-06
-8.560410502568492519e-06
-8.194354307950699832e-06
-8.025270118406781935e-06
-7.808772523578092419e-06
-7.630933513357563932e-06
-7.738461279017173108e-06
-8.118887004405581578e-06
-8.428565489843478515e-06
-8.400646128536988524e-06
-8.176455541653545171e-06
-8.097106863940626659e-06
-8.247279517167232181e-06
-8.357930976833774107e-06
-8.203061150721365622e-06
-7.932219873607362893e-06
-7.871178376528948818e-06
-8.077721522293860831e-06
-8.213932573523423727e-06
-7.845739039348908922e-06
-6.785765908089683743e-06
-5.090034596709559607e-06
-2.764912643192126348e-06
2.431102098918387947e-07
3.562667414503855810e-06
6.161721715421811306e-06
6.866420576968827090e-06
5.111327155836912618e-06
1.237140291056402358e-06
-3.759146277932474202e-06
-8.702220230232378612e-06
-1.264908219578798252e-05
-1.510700287865712055e-05
-1.605231165146457856e-05
-1.580939173360954372e-05
-1.487003696393683652e-05
-1.368152315409587325e-05
-1.242473668015942673e-05
-1.101292869925585654e-05
-9.443147085555738182e-06
-8.052598839520101431e-06
-7.267108414725869628e-06
-7.144606575488740539e-06
-7.309635105984160002e-06
-7.395460617767584153e-06
-7.418576971207385858e-06
-7.607445312396359160e-06
-7.969134752205031449e-06
-8.199013881418957357e-06
-8.071825564752396854e-06
-7.761366627712859635e-06
-7.626785858632218325e-06
-7.756611436423385149e-06
-7.875299497345292967e-06
-7.745205852584769130e-06
-7.503857446586129290e-06
-7.467863843650946858e-06
-7.690106889603951613e-06
-7.831846260906114992e-06
-7.502405143726371484e-06
-6.705062075836388434e-06
-5.866472217706928599e-06
-5.368150425473473381e-06
-5.165646842528530370e-06
-4.970344308276227483e-06
-4.660351098354558407e-06
-4.326243850175753205e-06
-4.004692088648231832e-06
-3.594434210059130581e-06
-3.047384554640282704e-06
-2.527701580287016026e-06
-2.236801385517615653e-06
-2.018176636791934681e-06
-1.373249586579841829e-06
-2.479967294244383533e-08
1.719005581724169756e-06
3.266061522154552517e-06
4.305120297529833420e-06
4.973876792220456865e-06
5.481895440878093177e-06
5.756817458451538970e-06
5.601084324762117822e-06
5.091461270413078261e-06
4.631963734467257069e-06
4.533155783859509184e-06
4.675959059447437986e-06
4.722004662523272425e-06
4.575962176354795751e-06
4.490205584374160439e-06
4.674418982378642485e-06
4.967180289327248244e-06
5.036835333717267448e-06
4.783865475182241116e-06
4.362281796025287500e-06
3.843878836382160559e-06
3.048139004162695669e-06
1.790693445582639559e-06
2.066319602124021481e-07
-1.287582364660980617e-06
-2.336279078391230222e-06
-2.949651112542027827e-06
-3.469981512316431266e-06
-4.148710526900119936e-06
-4.871867712402240357e-06
-5.447521121556187034e-06
-5.955552434171596412e-06
-6.609324616255174514e-06
-7.368875675871610283e-06
-7.887800627374572310e-06
-7.923960527160818870e-06
-7.662277844304709925e-06
-7.493200416875850196e-06
-7.544500223913690206e-06
-7.576509425763007277e-06
-7.376776287567969785e-06
-7.094857055716880620e-06
-7.047770085590229818e-06
-7.281094453931402238e-06
-7.486909629113905115e-06
-7.410520777252890064e-06
-7.186900286020132430e-06
-7.140308859283697706e-06
-7.336022295905017251e-06
-7.488924409062845947e-06
-7.363284673900959372e-06
-7.105614480890819684e-06
-7.043841261909166066e-06
-7.240772400849646073e-06
-7.405417433679379180e-06
-7.295444956535712429e-06
-7.051993450180352108e-06
-6.999817209991600662e-06
-7.200822750685577765e-06
-7.364851488804967372e-06
-7.251332750958072970e-06
-7.003323982201338354e-06
-6.947107158188570573e-06
-7.186776463520601925e-06
-7.578268287858216095e-06
-8.019390443053611248e-06
-8.512199715889788974e-06
-8.920252919957115845e-06
-8.924380750299586553e-06
-8.383406111518502642e-06
-7.597003427247821621e-06
-7.040200060808067482e-06
-6.875672616274887456e-06
-6.851170683774306063e-06
-6.709819490970766549e-06
-6.544898233512347841e-06
-6.622513884376213582e-06
-6.953285807735209204e-06
-7.213510779641309693e-06
-7.149263937383854410e-06
-6.906937774786329390e-06
-6.826267773966041991e-06
-6.986681215059013313e-06
-7.112690503453239347e-06
-6.972728943916288716e-06
-6.712795993123680885e-06
-6.657358288079151293e-06
-6.864713488782862908e-06
-7.039836166263996487e-06
-6.937716840531322354e-06
-6.698403933502495387e-06
-6.646891682090590118e-06
-6.846142492387870745e-06
-7.007319476171164760e-06
-6.891007661546375547e-06
-6.641012086047400424e-06
-6.583899839943059933e-06
-6.782358453384128190e-06
-6.946127630615439675e-06
-6.833978669994683221e-06
-6.588113816102304436e-06
-6.534050638265247228e-06
-6.734063424725589515e-06
-6.898005326262513203e-06
-6.785079385559870698e-06
-6.538018127453353339e-06
-6.482797443441180648e-06
-6.681984052540229035e-06
-6.845538506534070009e-06
-6.732621388227745776e-06
-6.485834826832318853e-06
-6.430999968654781685e-06
-6.630552693766213205e-06
-6.794372293126999764e-06
-6.681591801843938649e-06
-6.434828367481383100e-06
-6.379942367550353466e-06
-6.579414758401337359e-06
-6.743162120028711769e-06
-6.630340004032401260e-06
-6.383572508081463365e-06
-6.328714890853426862e-06
-6.528236347017957364e-06
-6.692040349232821600e-06
-6.579271839766601946e-06
-6.291235814038900526e-06
-6.007908738638705026e-06
-5.694423970871273741e-06
-5.305728382639696769e-06
-5.055912876374251202e-06
-5.231302383287347524e-06
-5.791619430558636995e-06
-6.332192486197581629e-06
-6.523228416245831221e-06
-6.461515007804400726e-06
-6.469696011421701394e-06
-6.637537735043457620e-06
-6.716284909843614923e-06
-6.505575365377451771e-06
-6.177810232414104472e-06
-6.074025341316473653e-06
-6.258392485510154214e-06
-6.433215297015556174e-06
-6.345873538438090551e-06
-6.127511387213533727e-06
-6.095662779538237464e-06
-6.308706851417780176e-06
-6.476303525148800943e-06
-6.359953761306873652e-06
-6.105737147024217532e-06
-6.042803549237934138e-06
-6.235958983198793617e-06
-6.396207662319631173e-06
-6.282694978433668373e-06
-6.037312904928275266e-06
-5.984897199888670308e-06
-6.228284141574385015e-06
-6.622601454230591488e-06
-7.065353681768159938e-06
-7.600019123467290387e-06
-8.236384081252769659e-06
-8.753039050741301082e-06
-8.764126330808376148e-06
-8.114603085578960846e-06
-7.135870745879781585e-06
-6.356699696493008976e-06
-5.991876226297201963e-06
-5.824102066532441883e-06
-5.608913882821931076e-06
-5.432332317850620853e-06
-5.541045020674546775e-06
-5.922588270356721852e-06
-6.233337566293005004e-06
-6.206467951640943155e-06
-5.983328338669522843e-06
-5.905046177858753669e-06
-6.056306244873151347e-06
-6.168064071397742189e-06
-6.014313307241231012e-06
-5.703283416309144233e-06
-5.373549305280246686e-06
-4.757051478752480471e-06
-3.330507134683552586e-06
-9.366486032813105218e-07
1.912262966886580927e-06
4.422383542790184347e-06
6.105563567631038820e-06
6.867764671388871959e-06
6.629511846206242143e-06
5.179586653828051894e-06
2.471965486855712239e-06
-1.140547149192305450e-06
-5.009859992219807399e-06
-8.456499646207527347e-06
-1.099304461163882693e-05
-1.242814794696392151e-05
-1.285176453881293080e-05
-1.254280063315268920e-05
-1.185047467358558882e-05
-1.109117930778724365e-05
-1.044303807588297505e-05
-9.821187930417179114e-06
-8.941557174821972574e-06
-7.698651695431109576e-06
-6.415484803184722491e-06
-5.565334241966129073e-06
-5.281875560276583845e-06
-5.264457415024243306e-06
-5.201207173913541062e-06
-5.136155137212688540e-06
-5.300166187316852941e-06
-5.685517327237499453e-06
-5.965266374667304919e-06
-5.892652870658607778e-06
-5.584749112542605427e-06
-5.247419094579076572e-06
-4.830330156237834846e-06
-4.161695860621524103e-06
-3.326742931565279124e-06
-2.753367468937578987e-06
-2.858548404316746771e-06
-3.611530843402442540e-06
-4.526111722877557177e-06
-5.153149798269489738e-06
-5.480256520093812818e-06
-5.760263494004024744e-06
-6.060711800336293974e-06
-6.108989723638463332e-06
-5.599649432031564143e-06
-4.571797143836167541e-06
-3.358831849391448387e-06
-2.226858964109146572e-06
-1.228633819856300699e-06
-3.738354818194416794e-07
1.991472002022151805e-07
3.253160101503165143e-07
6.815292044736292852e-08
-2.762762610375781657e-07
-4.166754493805566084e-07
-2.244085485657841368e-07
3.036632429051322227e-07
1.215179103291717229e-06
2.631832796384855250e-06
4.465924273319716979e-06
6.238744718997151631e-06
7.391925066371614939e-06
7.778964613064164268e-06
7.740958364163536050e-06
7.656240018208012411e-06
7.547956853756012122e-06
7.235905290769177875e-06
6.754652646015435753e-06
6.435401685688454310e-06
6.513189081992341714e-06
6.810385414877232927e-06
6.914693748143180574e-06
6.536327511131689856e-06
5.654388009665147486e-06
4.418298101752722080e-06
2.957567357923461922e-06
1.377428463336773685e-06
-7.926603304756275664e-08
-1.110138067566670007e-06
-1.683824138633743250e-06
-2.146180269188746245e-06
-2.891200772171046653e-06
-3.928705844180187404e-06
-4.860515519560299967e-06
-5.345843976760865967e-06
-5.473968314718927326e-06
-5.573640766592204096e-06
-5.754629338279132344e-06
-5.796337209450323870e-06
-5.527172925274981765e-06
-5.142704190618039355e-06
-4.998213226663846161e-06
-5.162931646761434303e-06
-5.337025256409056804e-06
-5.261604043315765519e-06
-5.060451481156869390e-06
-5.044918495652231079e-06
-5.269565872150300270e-06
-5.442772351922484079e-06
-5.326755351555778026e-06
-5.069438729994680424e-06
-5.002080950208959289e-06
-5.191224171144666520e-06
-5.348913180348263207e-06
-5.234605387250901312e-06
-4.989943002938455116e-06
-4.939205625028743686e-06
-5.143301886394701912e-06
-5.310987793921199715e-06
-5.200829893696996466e-06
-4.955392671363902519e-06
-4.900836571589144811e-06
-5.100097900952564882e-06
-5.263533445082341522e-06
-5.150615248558242689e-06
-4.904120494950496535e-06
-4.849910137417558196e-06
-5.050360319695208763e-06
-5.215240332595424178e-06
-5.103568455350758209e-06
-4.857873586726854438e-06
-4.803968147461200809e-06
-5.004324117980379457e-06
-5.168877147661112577e-06
-5.056815440439964705e-06
-4.810796275470372535e-06
-4.756699870143711291e-06
-4.957008503247914862e-06
-5.121627514486929468e-06
-5.009695827838143207e-06
-4.763821653364398350e-06
-4.709848954893777005e-06
-4.910241581248114557e-06
-5.074902966484181251e-06
-4.962981526915163055e-06
-4.717100035135641667e-06
-4.663116601684006059e-06
-4.863505293043452509e-06
-5.028174528249191501e-06
-4.916272967335261284e-06
-4.670420434530779228e-06
-4.616470746974433635e-06
-4.816893899200611698e-06
-4.981595436383015428e-06
-4.869722677829681619e-06
-4.582582582910829450e-06
-4.300152802185113573e-06
-3.987567056303646574e-06
-3.599771945065593399e-06
-3.350857749718323237e-06
-3.527148710390701948e-06
-4.088366795587567739e-06
-4.629840146365948579e-06
-4.821775539219812288e-06
-4.760960851527069005e-06
-4.770040019480689158e-06
-4.938779551661919915e-06
-5.018424337951654828e-06
-4.808612297949637474e-06
-4.481744583901200126e-06
-4.378856996853101917e-06
-4.564121274975692956e-06
-4.739840992198644012e-06
-4.653395866181514321e-06
-4.435930049710004414e-06
-4.404977474102448202e-06
-4.618917284804964591e-06
-4.787409420575092145e-06
-4.671954858839410342e-06
-4.418633199494639473e-06
-4.356594316257102514e-06
-4.550644225464605953e-06
-4.711787137588737626e-06
-4.599168439632004651e-06
-4.354680100161285469e-06
-4.303157873702633008e-06
-4.506125154390212324e-06
-4.672832590393164980e-06
-4.562134307349377323e-06
-4.316671414548326316e-06
-4.262521951453659794e-06
-4.503769028086362489e-06
-4.896468103991079011e-06
-5.338601192771359973e-06
-5.873703548162062747e-06
-6.511326180496051630e-06
-7.071005083222146729e-06
-7.312399976158789440e-06
-7.218856800468964479e-06
-7.022484813899045816e-06
-6.935754020292410400e-06
-6.930657120472459598e-06
-6.839845227830740252e-06
-6.643234571144939541e-06
-6.516459991249862458e-06
-6.592879897039793862e-06
-6.728234541603017212e-06
-6.555723700085883818e-06
-5.890582790982332504e-06
-5.006286259975731192e-06
-4.367722060876208679e-06
-4.137009257189501986e-06
-4.064435329993575723e-06
-3.894469113223010881e-06
-3.718820847044557956e-06
-3.799375982786190473e-06
-4.141189788488074849e-06
-4.373846067280602408e-06
-4.010813343849749815e-06
-2.641849892674239061e-06
9.627163466770468953e-09
3.723486765835917509e-06
7.413713681390796256e-06
9.558504543884642173e-06
9.150910198244064774e-06
6.212663361965278967e-06
1.619531603131352670e-06
-3.397380858643018803e-06
-7.731346090271468236e-06
-1.069586596557952940e-05
-1.210435503399019966e-05
-1.218180739509034773e-05
-1.138923468067575501e-05
-1.023844718712308517e-05
-9.109605452290970928e-06
-8.073157288912157200e-06
-6.929976248557302742e-06
-5.591430249614415132e-06
-4.306931212881326284e-06
-3.347549598813125642e-06
-2.650680966634844920e-06
-1.971236286826068447e-06
-1.290550058809794703e-06
-8.919314128342485800e-07
-9.666047159628533115e-07
-1.299232301681938129e-06
-1.489949835473940723e-06
-1.417656239439580631e-06
-1.337484925736758318e-06
-1.479118871978660497e-06
-1.706931570974986250e-06
-1.712054222727323737e-06
-1.451139319148398029e-06
-1.229860052089833991e-06
-1.298291544623571842e-06
-1.516471736065537239e-06
-1.556196680479365008e-06
-1.349957649309978266e-06
-1.182344118471005211e-06
-1.289822377800283596e-06
-1.527260113633548687e-06
-1.526864482995237728e-06
-1.081069740502871220e-06
-3.428286824141804667e-07
3.462439452507232602e-07
8.112303465403465931e-07
1.134427550374445189e-06
1.428001755558305927e-06
1.626386911516091945e-06
1.620033142045416104e-06
1.584536531370982950e-06
1.894271590662669746e-06
2.676772359389209668e-06
3.692305287781432373e-06
4.628714453552350245e-06
5.427967352121320213e-06
6.304222937632299309e-06
7.374349014630868430e-06
8.380258852103052852e-06
8.930293942085801171e-06
8.959245083148837112e-06
8.807011064267778483e-06
8.793110015700603976e-06
8.856826738112141085e-06
8.737907304839343626e-06
8.413318754202996991e-06
8.185964617110618195e-06
8.289036003078558085e-06
8.560906879284840796e-06
8.654210254955488961e-06
8.447570572269653570e-06
8.074740405066261576e-06
7.593541158611425465e-06
6.817234286319917352e-06
5.561947825610356917e-06
3.967569450965902866e-06
2.415643358613043645e-06
1.121756603603552711e-06
-1.772166826553815016e-08
-1.098393116724969099e-06
-1.917029052758947830e-06
-2.176108593522844163e-06
-1.905830690301231784e-06
-1.516230048579975034e-06
-1.360621972838035575e-06
-1.378127889914915264e-06
-1.285071532136250600e-06
-1.025116070533001195e-06
-9.108986063819867225e-07
-1.298997070399276440e-06
-2.155640927072767832e-06
-3.033954855940077308e-06
-3.544197338491483421e-06
-3.732616959509894202e-06
-3.895767315880541734e-06
-4.124153345916732640e-06
-4.189988846750407766e-06
-3.923546856980252100e-06
-3.527367923833289940e-06
-3.365102641094548281e-06
-3.513043217056137572e-06
-3.675712301985305000e-06
-3.595670616209711243e-06
-3.395869580090259982e-06
-3.385546388954067582e-06
-3.616856163091685765e-06
-3.796206328292044517e-06
-3.684642512661723630e-06
-3.388436485926828249e-06
-3.093268806226581546e-06
-2.727675097736678033e-06
-2.103568352222530841e-06
-1.297261637907095967e-06
-7.349018327588138549e-07
-8.368879038077884697e-07
-1.578405198490090307e-06
-2.479314419406750330e-06
-3.095049931493115456e-06
-3.415632744861281042e-06
-3.694250987166915164e-06
-3.997354677810543472e-06
-4.091880165768748144e-06
-3.816503028600226374e-06
-3.388999484481516532e-06
-3.188827426009510520e-06
-3.304385924639934499e-06
-3.446742047538299734e-06
-3.359645550752381511e-06
-3.163399984621996634e-06
-3.162749599238092752e-06
-3.405301531088264196e-06
-3.594054976954613937e-06
-3.488280670620140449e-06
-3.235325195718005464e-06
-3.167584055687290406e-06
-3.394887759457846353e-06
-3.777177017272823360e-06
-4.214085755908149886e-06
-4.748900085713506420e-06
-5.389731404483087698e-06
-5.954262234366880369e-06
-6.200504475049213887e-06
-6.110717657401414623e-06
-5.916575808190676161e-06
-5.830655904741389362e-06
-5.784074951191352900e-06
-5.464149165746970680e-06
-4.712615770357320661e-06
-3.804575339741973305e-06
-3.189791490764263200e-06
-3.049456213271383074e-06
-3.258550259652010075e-06
-3.685175602674600865e-06
-4.314805876090009425e-06
-5.093025420899030263e-06
-5.745360906924395366e-06
-5.853195373111987258e-06
-5.250196318866136637e-06
-4.273371540599391984e-06
-3.466718968765447976e-06
-3.062640501860199622e-06
-2.858474854585694780e-06
-2.618653553538918344e-06
-2.432011514074654748e-06
-2.543316752379805825e-06
-2.976875066707650507e-06
-3.529840927630789230e-06
-4.069894591465634506e-06
-4.636777890317649493e-06
-5.254636956276830130e-06
-5.765936685993248746e-06
-5.952835703408241521e-06
-5.815085913668958310e-06
-5.592948899338526764e-06
-5.499499251207093164e-06
-5.502201004889832104e-06
-5.426961659130930781e-06
-5.247236036822887626e-06
-5.134054191698886945e-06
-5.218585313171801870e-06
-5.397853445434106100e-06
-5.452339676028881084e-06
-5.337917357415603840e-06
-5.230757174672617681e-06
-5.280749355471673365e-06
-5.407732920080419745e-06
-5.411804809605030957e-06
-5.261278367968898872e-06
-5.136820423027608789e-06
-5.186418572903571594e-06
-5.324281957326158169e-06
-5.343875110222740351e-06
-5.207932629111057272e-06
-5.093680339028718626e-06
-5.147965295669054899e-06
-5.285669347719785665e-06
-5.301952835901013854e-06
-5.161483377967134378e-06
-5.043077035884857907e-06
-5.094534064275919286e-06
-5.189709949692245334e-06
-4.977660460909012823e-06
-4.283894827290671797e-06
-3.385830067763316190e-06
-2.747105904720303006e-06
-2.566807328174205920e-06
-2.735832967479077570e-06
-3.132792012776050027e-06
-3.747386981138368762e-06
-4.524201242774650467e-06
-5.184572123921260219e-06
-5.304674465094112372e-06
-4.672329715374857437e-06
-3.393127431196255676e-06
-1.455628434249550838e-06
1.605769192719914470e-06
6.226857227640922303e-06
1.189192071486041859e-05
1.698376016724421141e-05
1.966340180835908464e-05
1.884841310014599916e-05
1.464779685687356900e-05
8.208802431371898395e-06
1.161852534113650459e-06
-4.994395370259428326e-06
-9.300589898387625078e-06
-1.146485948228536148e-05
-1.176122185866474852e-05
-1.080130636183735128e-05
-9.284128725871660100e-06
-7.799501557908296369e-06
-6.720650589538929050e-06
-6.185684216356055639e-06
-6.102686521283723586e-06
-6.123374702469922473e-06
-5.729898391223927311e-06
-4.574187043603623504e-06
-2.831700142568994611e-06
-1.126043537487357091e-06
1.529008529017487011e-08
5.752059297886908296e-07
8.616240046396095881e-07
1.028798680303554245e-06
9.344673053753791615e-07
4.888190925554101914e-07
-4.888520461927402266e-08
-2.876523056480080593e-07
-1.500280758081114980e-07
5.220231402463238715e-08
3.800661004186411924e-08
-9.197106125451993389e-08
-4.420153531666294475e-08
2.261623957143195213e-07
4.256411837833807456e-07
3.202541374247930557e-07
6.447748203867661331e-08
-3.757333209488177364e-09
1.871193990027046169e-07
3.517945910675044296e-07
2.501105295801641206e-07
2.250495806494602147e-08
3.262803057231532955e-08
4.853379009167590940e-07
1.226621138238198007e-06
1.956476377453802130e-06
2.646984165546072265e-06
3.520465273192823798e-06
4.632420874704786489e-06
5.747624702196814738e-06
6.611273012488211640e-06
7.203651151752440220e-06
7.668128906921654794e-06
8.036363230928479892e-06
8.216486778251581619e-06
8.321332989272674707e-06
8.838912650198450633e-06
1.022230609448515826e-05
1.226886380004179636e-05
1.415519371128089494e-05
1.521823473494927093e-05
1.555685304296542591e-05
1.571963681646686164e-05
1.592603399635749675e-05
1.587315823408511816e-05
1.528785931132415875e-05
1.432311121848267576e-05
1.328111968418799942e-05
1.222520398286216912e-05
1.103091805188527486e-05
9.636787680811076390e-06
8.135594514336111021e-06
6.672387992967496612e-06
5.245011470891475144e-06
3.683076421645064992e-06
1.964904399443384473e-06
4.404295998889970324e-07
-4.451233945146920875e-07
-6.217482010020482889e-07
-4.647208136251746691e-07
-3.506702466058959501e-07
-2.782261178698917396e-07
-3.413702978472497456e-08
3.770982123569896930e-07
6.445953639539555598e-07
5.419586905833599847e-07
2.455317369582944834e-07
1.188053132624325466e-07
2.547311195731755368e-07
3.811134781072847891e-07
2.620909367504370389e-07
3.548526416342551236e-08
1.714613250983364656e-08
2.586976386853697893e-07
4.614519539335847160e-07
3.796733100511522145e-07
1.548107295369664175e-07
1.143017048945008308e-07
3.236092234063317214e-07
4.957889837739483353e-07
3.924284709993718057e-07
1.574887515903431446e-07
1.170940047169438975e-07
3.332079698945066508e-07
5.148481569449663828e-07
4.202512843075660476e-07
1.913469342170864693e-07
1.536233088930623629e-07
3.694934838324544419e-07
5.490245206760154735e-07
4.516276917696012352e-07
2.201862090544577343e-07
1.807497467899527260e-07
3.958889913823272460e-07
5.755213611237385119e-07
4.787443634157782538e-07
2.481001862041627248e-07
2.093675886841779593e-07
4.249625999712186905e-07
6.047646623148925920e-07
5.079201247124186442e-07
2.770646968208741434e-07
2.380759873142065803e-07
4.534468545228494008e-07
6.330991892039107354e-07
5.361881323423230576e-07
3.053337017316395580e-07
2.663857091700395783e-07
4.818084080295802896e-07
6.615019405064064665e-07
5.646098425483534407e-07
3.337502194201876683e-07
2.947778613075036314e-07
5.101652617199634829e-07
6.898208269425364390e-07
5.928942379003096532e-07
3.620067587946010148e-07
3.230135519572343116e-07
5.383855476852360874e-07
7.180287155923443563e-07
6.210903529509245207e-07
3.901899910857221652e-07
3.511819366154039863e-07
5.665370640941851734e-07
7.461618297558287506e-07
6.492042497280325715e-07
4.182845417539647975e-07
3.792575001356958493e-07
5.945942299633444615e-07
7.742011887388276702e-07
6.772262422185482215e-07
4.049765142145522523e-07
1.374295257638229761e-07
-2.015941742471160863e-07
-8.030253815053629759e-07
-1.591424490275327452e-06
-2.139991717220219429e-06
-2.026836319011295976e-06
-1.275112840698658894e-06
-3.636182164287462767e-07
2.638678018794485906e-07
5.975818178396726627e-07
8.904954735957616585e-07
1.208613062271866988e-06
1.318389057045873990e-06
1.058117786032839484e-06
6.453591188206926908e-07
4.595193207245013692e-07
5.890678855869839567e-07
7.452046606423750095e-07
6.718190351752678291e-07
4.480097615183552913e-07
2.327033550216102523e-07
-6.513162468198769380e-08
-6.433557367286456957e-07
-1.426445953577339088e-06
-2.024229234233207641e-06
-2.154181649403966407e-06
-1.972077769165228462e-06
-1.894709934167265796e-06
-2.193600467553669599e-06
-2.774455777415844324e-06
-3.336422247094041686e-06
-3.723392831159514664e-06
-3.976004984073213294e-06
-4.047728048407014904e-06
-3.716633137849861560e-06
-2.914658372630302202e-06
-1.976565682956950378e-06
-1.375970728904236205e-06
-1.248860705025448354e-06
-1.305542313484158211e-06
-1.253707799917517501e-06
-1.161370456364972934e-06
-1.282446065304075847e-06
-1.627063523546930849e-06
-1.878845145808385676e-06
-1.794446625049457583e-06
-1.530254695789158646e-06
-1.433032573585935019e-06
-1.585464960087639379e-06
-1.711994495984551201e-06
-1.578808839992673921e-06
-1.328807227721938832e-06
-1.283593809230872986e-06
-1.458187753986810124e-06
-1.328195169434063722e-06
-1.769732324129857898e-07
2.220068368382035321e-06
5.389560694781697872e-06
8.764824201389313644e-06
1.216466314065223431e-05
1.534619737733218243e-05
1.745314371169234745e-05
1.738765025887817768e-05
1.465595053192084950e-05
9.728292727078531046e-06
3.756737251502891603e-06
-1.954863992109475142e-06
-6.396454372370380989e-06
-9.077199517312378062e-06
-1.002919041728470123e-05
-9.659981603011122514e-06
-8.545229017842527217e-06
-7.197362868304395150e-06
-5.834690004408147026e-06
-4.339385154507313071e-06
-2.552671059614724292e-06
-6.525917566027948744e-07
8.579755273663476102e-07
1.622238454479884243e-06
1.782627432545456260e-06
1.758012067765220349e-06
1.752906885707622409e-06
1.622303825351515622e-06
1.239399056628276853e-06
8.134323580732585852e-07
6.897119182829197735e-07
9.146776954324001405e-07
1.163229067043790569e-06
1.156141215999761394e-06
1.005380691932987401e-06
1.019154294413366401e-06
1.255409671532927628e-06
1.429342537633547244e-06
1.310485802580359390e-06
1.052514995458567498e-06
9.899203522088509741e-07
1.189976655451029965e-06
1.363621984313663157e-06
1.268278651993770343e-06
1.002153726284380698e-06
7.420181111713039431e-07
4.505565701476820780e-07
8.139949609692984388e-08
-1.515914184591023972e-07
3.845634872669262275e-08
6.121841392169590182e-07
1.165846883188448575e-06
1.411656508146769384e-06
1.592636625350732612e-06
2.211440304278869715e-06
3.445688739114835450e-06
5.055903482152580155e-06
6.783952897708155433e-06
8.575079716018774455e-06
1.033617708408379667e-05
1.171163228405796292e-05
1.232168870318272397e-05
1.218698047612512653e-05
1.176190523040358209e-05
1.147048764518339416e-05
1.132300209808289704e-05
1.108958175274017505e-05
1.074274692326155587e-05
1.055895060261344688e-05
1.073712346068218260e-05
1.108499374652422502e-05
1.119348706648594868e-05
1.082827293565757700e-05
1.013201269249991760e-05
9.408227426264483649e-06
8.655934101091038605e-06
7.521996448616212203e-06
5.825176579530861381e-06
3.866706773194518231e-06
2.074712319424596569e-06
6.131275545078927140e-07
-4.699731246409787053e-07
-9.799792007640278221e-07
-7.332344348675135678e-07
8.958357159354793077e-08
9.489032269196067131e-07
1.415040847516060381e-06
1.531867251798235802e-06
1.612765038448408715e-06
1.768950467224998547e-06
1.787631683579312399e-06
1.504622908337334732e-06
1.119284189494206194e-06
9.865738519916893590e-07
1.172402784034757921e-06
1.372339078338281304e-06
1.323185580718522894e-06
1.145714696037277756e-06
1.149908445556148097e-06
1.390409053968223854e-06
1.576624437965460747e-06
1.472169521609605314e-06
1.226253675492954755e-06
1.171018629747537932e-06
1.373398404279085481e-06
1.545405364321166978e-06
1.446193526581481594e-06
1.217001583131768552e-06
1.181743922103016920e-06
1.401083651643203050e-06
1.583673683078958835e-06
1.488098095525612494e-06
1.257013981033198390e-06
1.216700004977447378e-06
1.430197052089210551e-06
1.607930461556784142e-06
1.509399343572302207e-06
1.277373572826738987e-06
1.237685994868477109e-06
1.452678180386263671e-06
1.632089511921921431e-06
1.534919165987273940e-06
1.303689005561458052e-06
1.264214197720771933e-06
1.478975216365311370e-06
1.657917803784093459e-06
1.560238705683722468e-06
1.328600513247597822e-06
1.288885252678718955e-06
1.503574232877524448e-06
1.682570240967088256e-06
1.585009263854938627e-06
1.353497080160406268e-06
1.313876184728448584e-06
1.528609972719287070e-06
1.707602212441578123e-06
1.610002088742500394e-06
1.378433231452674057e-06
1.338754446058357104e-06
1.553440207979376845e-06
1.732399051409019267e-06
1.634779528528323526e-06
1.361888354691805199e-06
1.093702025392354390e-06
7.540399216365124098e-07
1.519702876167931786e-07
-6.370678459087303417e-07
-1.186274867865508821e-06
-1.073759896910546860e-06
-3.226771709665919450e-07
5.881767152075299129e-07
1.215022282686841603e-06
1.548096293728086279e-06
1.840370432657331118e-06
2.157848947013903736e-06
2.266986218234479305e-06
2.006076475922551492e-06
1.592679512127047552e-06
1.406201548488325806e-06
1.535112068798554787e-06
1.690610935020713264e-06
1.616587563708637716e-06
1.433453618015144959e-06
1.446012711135520457e-06
1.701883833871458702e-06
1.904043620786386392e-06
1.811723358571089285e-06
1.530916349055316272e-06
1.248110429027628936e-06
8.931565919938948619e-07
2.792787446382300018e-07
-5.162407228169255260e-07
-1.108074351401813216e-06
-1.221648327759968922e-06
-1.020680626785475727e-06
-8.865364875020133575e-07
-9.478677886561433786e-07
-9.720598979954154186e-07
-7.558991872324863519e-07
-4.572184323644126226e-07
-3.985432718051527012e-07
-6.277194071022891065e-07
-7.950655309514631326e-07
-4.978938124844951475e-07
2.701384543756524541e-07
1.087942644481360667e-06
1.575463092751322400e-06
1.775526007891181349e-06
1.973512990017396086e-06
2.246541375472801360e-06
2.355442243022051190e-06
2.123375072827879908e-06
1.750425292296005887e-06
1.601498870838572112e-06
1.756268860808824704e-06
1.923168574794030069e-06
1.930634756502895390e-06
2.236660674734874325e-06
3.615597215103108803e-06
6.287996870124260216e-06
9.823162689372753680e-06
1.398193650031575416e-05
1.891234146065924851e-05
2.412314112997100376e-05
2.791734828758092555e-05
2.836906169074515240e-05
2.468238148537980011e-05
1.760664262506377910e-05
8.916851499009005285e-06
5.896147275455942418e-07
-5.862436409350205158e-06
-9.715627606390149487e-06
-1.102866471162136427e-05
-1.041480328988397732e-05
-8.729900185732532075e-06
-6.749065395729412511e-06
-4.877106028947982035e-06
-3.085980138426244264e-06
-1.220537716026532059e-06
5.949539479196788749e-07
1.935235720623061867e-06
2.516778569142691870e-06
2.533483889075687341e-06
2.428035252509268247e-06
2.404378456063690947e-06
2.301009323656913558e-06
1.968390220634710762e-06
1.594791470607908069e-06
1.511138364498979974e-06
1.798866303855666009e-06
2.279390897684580554e-06
2.817203766747234047e-06
3.431787925347644388e-06
4.121077065109373495e-06
4.704179810584234225e-06
4.947806269382439675e-06
4.845452556983425450e-06
4.638791926383775482e-06
4.588307311275021985e-06
4.856256546210802904e-06
5.601017315262923743e-06
6.985680271156989079e-06
8.906080672016061792e-06
1.083450222375537753e-05
1.215679814226967798e-05
1.268247415797044170e-05
1.272916484462555075e-05
1.267230413603501757e-05
1.254706002061482134e-05
1.223366365625134914e-05
1.197294353655015692e-05
1.243616131258846417e-05
1.405111398098928062e-05
1.636437364467563252e-05
1.834317212361559620e-05
1.941139272183223141e-05
2.000434535271172645e-05
2.085056629677824755e-05
2.190927050004215488e-05
2.247571934647715091e-05
2.232353850865408069e-05
2.219734226574056468e-05
2.284845884403527221e-05
2.397260924266523521e-05
2.456231009517279913e-05
2.422249362571614499e-05
2.368457239776667909e-05
2.379155367786707690e-05
2.436714457219878204e-05
2.447139305074022973e-05
2.358190693897932073e-05
2.211043079677455192e-05
2.067985935393538296e-05
1.937683947792179343e-05
1.800981494311079320e-05
1.662048198061238344e-05
1.532106566711472872e-05
1.391120807804786221e-05
1.205950547725889199e-05
9.778372181186731842e-06
7.478755671157188246e-06
5.602858485904135073e-06
4.256980102847155866e-06
3.190978106907347214e-06
2.192672716692391742e-06
1.401611718279330079e-06
1.100785577589622383e-06
1.278134185985230090e-06
1.555403238897338722e-06
1.609387662020851969e-06
1.520504892091510529e-06
1.578867956314358967e-06
1.836294230059011229e-06
2.010510735581657671e-06
1.878258031996824996e-06
1.601483650593785789e-06
1.521465159988641709e-06
1.709528804785885836e-06
1.877825889006988277e-06
1.782822081208947838e-06
1.561909919309141097e-06
1.535397229121609107e-06
1.761437208394885131e-06
1.947549312308201128e-06
1.852387944736727803e-06
1.619458242950122203e-06
1.576181860185107292e-06
1.827955293963731684e-06
2.231788304457087239e-06
2.686133741774183770e-06
3.193244114048441728e-06
3.616524847587155663e-06
3.636465263434414108e-06
3.111509684140842692e-06
2.341027188671283838e-06
1.799867007344555829e-06
1.650657583375427984e-06
1.641198564905439189e-06
1.514717127445668987e-06
1.364602323710074165e-06
1.457047823827448836e-06
1.802722007511397425e-06
2.077933135386975965e-06
2.028740093443916640e-06
1.801505018092520373e-06
1.735931567394455224e-06
1.911422451444556186e-06
2.052476641062270167e-06
1.927524826890146740e-06
1.682571668688992614e-06
1.642092822216254633e-06
1.864395155236995365e-06
2.054460193214284407e-06
1.967282127486311113e-06
1.742909936714682686e-06
1.706336215801770735e-06
1.920520702521653287e-06
2.096623852947410679e-06
1.995228734502173032e-06
1.760139389881488491e-06
1.717922809584446108e-06
1.931267041120935785e-06
2.109912580362521009e-06
2.012631494426875075e-06
1.781626583592884515e-06
1.742415689341604245e-06
1.957273115257683384e-06
2.136051854638146809e-06
2.037954719936329252e-06
1.805714017850670796e-06
1.765305486704790340e-06
1.979295775413866514e-06
2.157645439224183866e-06
2.059515112687996700e-06
1.827506995890160413e-06
1.787442300953276874e-06
2.001756954051040049e-06
2.180330267954135928e-06
2.082295278540572590e-06
1.850269120688991523e-06
1.810112154248152363e-06
2.024305319812132397e-06
2.202765187574524166e-06
2.104647306424202158e-06
1.872575777325778385e-06
1.832405865992260151e-06
2.046606775406527251e-06
2.225081985862096863e-06
2.126976445470403268e-06
1.853595153427889726e-06
1.584914578387793712e-06
1.244755196355189741e-06
6.421868040228643397e-07
-1.473501144859577796e-07
-7.383678179517245610e-07
-8.548520410195859962e-07
-6.586074644204450312e-07
-5.292682109584387893e-07
-5.943224796754701132e-07
-5.793541946157781063e-07
-1.353558710885201507e-07
7.180510461720413220e-07
1.558617586004323092e-06
2.021710442870077357e-06
2.172506096195302970e-06
2.317527884346469696e-06
2.548778657034115981e-06
2.634006363762068768e-06
2.396246866764496780e-06
2.030851621829053886e-06
1.896175822259593908e-06
2.065836907597742606e-06
2.244104914212094584e-06
2.174952629645991727e-06
1.983477826819082950e-06
1.980994371978710340e-06
2.262464540036274665e-06
2.722209607507229348e-06
3.529769789824514640e-06
5.392036447493918434e-06
8.973498406430735814e-06
1.398990075541014179e-05
1.940900290915344793e-05
2.458258519519394142e-05
2.925451675424432286e-05
3.246963527315236461e-05
3.261376282346639552e-05
2.872526812079463003e-05
2.130530809189588789e-05
1.201914253925516029e-05
2.893289377444631952e-06
-4.415619530168301243e-06
-9.026698770437293354e-06
-1.088709044244942739e-05
-1.056902518980926856e-05
-8.952937399040433229e-06
-6.922404883885925338e-06
-5.109524354813402345e-06
-3.696753140659598711e-06
-2.436582263638312410e-06
-1.011727228915063322e-06
5.779565287512810343e-07
2.062906034920306221e-06
3.257324167412213906e-06
4.192181202163812428e-06
4.931512775880551305e-06
5.391081694265582755e-06
5.478167139115094661e-06
5.453241704587105032e-06
5.891360906607314469e-06
7.109667356993752230e-06
8.806150707535704804e-06
1.037129704732102559e-05
1.146551373247240468e-05
1.219828789949193302e-05
1.275834897685126397e-05
1.306273529936699537e-05
1.291276090739265400e-05
1.239059508179171476e-05
1.190856242720107797e-05
1.178530074966601239e-05
1.190756052855604843e-05
1.193981213116718872e-05
1.178685667799082954e-05
1.169937806125832567e-05
1.188460438094735458e-05
1.217878643948236474e-05
1.228994203443786994e-05
1.234629124030572833e-05
1.297357454102151680e-05
1.460943553130145360e-05
1.688530211676366583e-05
1.901001433796600457e-05
2.078080563565946973e-05
2.284903483428659958e-05
2.567810476581994152e-05
2.856503377202539680e-05
3.032395835423025069e-05
3.097243466562674846e-05
3.207693984938384094e-05
3.490477685940340195e-05
3.865840882952815516e-05
4.131735242632266045e-05
4.213718140913322573e-05
4.245012805268474996e-05
4.365305203158029450e-05
4.522077824142594417e-05
4.545481457728601040e-05
4.380900436201402571e-05
4.158950048656243574e-05
4.015378722660187878e-05
3.923818558736655960e-05
3.762511847383054499e-05
3.489670946410345194e-05
3.189403090703078319e-05
2.957265481403247227e-05
2.790114912389091855e-05
2.607182412463586915e-05
2.351198774043900653e-05
2.039881341901005250e-05
1.726811446881567692e-05
1.445943057393002761e-05
1.208210762128852602e-05
1.031548518648163056e-05
9.460427437783612610e-06
9.542609887120030382e-06
1.000338178533249527e-05
1.010238778422415603e-05
9.661023353092425511e-06
9.162144389823705551e-06
9.056453369884727780e-06
9.185810173104360973e-06
9.069594512495884376e-06
8.589137835251589733e-06
8.060779115332707468e-06
7.710323458108503936e-06
7.379272564062481192e-06
6.826264868534425497e-06
6.219474285028931382e-06
6.116061305696541779e-06
6.820136631190821844e-06
7.922204830531936781e-06
8.697043930573083670e-06
8.901665275049928537e-06
8.936648000755107604e-06
9.195813087006443216e-06
9.507547749411304289e-06
9.418005376166404169e-06
8.901380450028365481e-06
8.477528432091196173e-06
8.559389728941390468e-06
8.920128564250595765e-06
9.013743925091279423e-06
8.679101606830770494e-06
8.177169044329210551e-06
7.638825068783795493e-06
6.977604164525863653e-06
6.362755934938183765e-06
6.299308887405267708e-06
7.039633021023348191e-06
8.144595092710586425e-06
8.883708157749948582e-06
9.025703275978261178e-06
8.989820243703692680e-06
9.187054201017186172e-06
9.456559444871554622e-06
9.347549834566664203e-06
8.830950811606680782e-06
8.419739891749183710e-06
8.519215624232234017e-06
8.896284108354044748e-06
9.001172384445846894e-06
8.712882156791448219e-06
8.480402401326205805e-06
8.679766595632355355e-06
9.078977402321187904e-06
9.149065226846315571e-06
8.797451755762351311e-06
8.499229889943107005e-06
8.648268958715626064e-06
9.020347997619974963e-06
9.085630014133559858e-06
8.745191746184123000e-06
8.465807267290347338e-06
8.675187584418068602e-06
9.290007856667006797e-06
9.917031251298912052e-06
1.035858550604912109e-05
1.076708619975935680e-05
1.124718837702602355e-05
1.147579346552376346e-05
1.100803036057980709e-05
9.934630088907226090e-06
8.927062687684851025e-06
8.525960740779424973e-06
8.576432746744919470e-06
8.543837259854011648e-06
8.273266715098895029e-06
8.153977953772831327e-06
8.499340836016558217e-06
9.028205908874886840e-06
9.183674199497420050e-06
8.866267253218214147e-06
8.559754354663511394e-06
8.716002008114241603e-06
9.274319355937756413e-06
9.857255261330426566e-06
1.027433121303547848e-05
1.067763315367084791e-05
1.116661065392628765e-05
1.141108945320354166e-05
1.095971827484219330e-05
9.898816219039929619e-06
8.897946811982590881e-06
8.497982519729600727e-06
8.545626500975543900e-06
8.508314214319621555e-06
8.232996759696130203e-06
8.110165456536489416e-06
8.453693781024393961e-06
8.982323436549855941e-06
9.097357628372319639e-06
8.511520063291160153e-06
7.423520547702669995e-06
6.204080629448251063e-06
5.061955201611452333e-06
4.040244009208208067e-06
3.240804010020905087e-06
2.858073475854713235e-06
2.962017167239795759e-06
3.342416311499687553e-06
3.707488492040336394e-06
4.109783259585565274e-06
4.956953038566057973e-06
6.464500356221517457e-06
8.296142583131309653e-06
9.860247469467854609e-06
1.086436768149740028e-05
1.147205504277960743e-05
1.191664254931266744e-05
1.214200902790856120e-05
1.195767675963360771e-05
1.143963272936847559e-05
1.098614083432656619e-05
1.090022668434283158e-05
1.109736102522771741e-05
1.162842833230414093e-05
1.378198467573783593e-05
2.006299153702770742e-05
3.179017932943382235e-05
4.673432534555191467e-05
6.030957161132001227e-05
6.886825045502137875e-05
7.092831225440372604e-05
6.623377123150125684e-05
5.532293549454707186e-05
3.992828202553144257e-05
2.285753305209205823e-05
7.128627377831533432e-06
-4.957212704781422701e-06
-1.232835264080682740e-05
-1.515904920784651745e-05
-1.448274138565142418e-05
-1.163098437565101499e-05
-7.882187338365013727e-06
-4.339020853453885598e-06
-1.637796959334200550e-06
3.606529879129486535e-07
2.302568576374481869e-06
4.604111659582532233e-06
7.044844317788688908e-06
9.121309047576493714e-06
1.073928699815395786e-05
1.235032975864933365e-05
1.423885674710442144e-05
1.595669935389682295e-05
1.678530520111871056e-05
1.663926567862435168e-05
1.621674265454166913e-05
1.615086856464760637e-05
1.633960951048520863e-05
1.638044834968898153e-05
1.634065931421897294e-05
1.670939741181000880e-05
1.762870421274805621e-05
1.853259222863125935e-05
1.882291240202753758e-05
1.871718808746667683e-05
1.900977954849329633e-05
1.996846441932205983e-05
2.090849586273023751e-05
2.106911765021744339e-05
2.060671658312816128e-05
2.040779245949020628e-05
2.100069770383855011e-05
2.196019440620444884e-05
2.255313712821842704e-05
2.288098183638227163e-05
2.396079729157610418e-05
2.635583058679536047e-05
2.919508148344034031e-05
3.119426003625223534e-05
3.247166706926144961e-05
3.458650738936755849e-05
3.844511599765251868e-05
4.283035758874363121e-05
4.580793457169373941e-05
4.728956425075310298e-05
4.911897994564201343e-05
5.241015960549764963e-05
5.587815899898303625e-05
5.752195309902218402e-05
5.736645980313703845e-05
5.746125940202800609e-05
5.904163944337783161e-05
6.083391575863692917e-05
6.081947727682089725e-05
5.892771182213197943e-05
5.703978640512451925e-05
5.639391022514332548e-05
5.596331535008062906e-05
5.387361525756329819e-05
4.978174939897485150e-05
4.513792494421524560e-05
4.128534897088754194e-05
3.808709701231210678e-05
3.464833374141024458e-05
3.078479866845170175e-05
2.721223339505094249e-05
2.445512508900365804e-05
2.217511056927193590e-05
1.973669763759095124e-05
1.709108034446244991e-05
1.481235387689378136e-05
1.332583849786754783e-05
1.243243402154757570e-05
1.165431363921083199e-05
1.081035268218043322e-05
1.013125067819605246e-05
9.841095300643246132e-06
9.797365923742703631e-06
9.671776907072176171e-06
9.388250403384705578e-06
9.212569935310897933e-06
9.356187320892995547e-06
9.648764602898986535e-06
9.743570671292115613e-06
9.566414299561028773e-06
9.404372886672697702e-06
9.501645993808087307e-06
9.722239201187373922e-06
9.747365199750960478e-06
9.520093818017364112e-06
9.333632800364852943e-06
9.429553537110134414e-06
9.664197344989543112e-06
9.709784902373923811e-06
9.501836680298729346e-06
9.328903500157649078e-06
9.431001928473455210e-06
9.665359625261630904e-06
9.706460264651060025e-06
9.492407698984134260e-06
9.313878029003003277e-06
9.412160480322436713e-06
9.644863212309060869e-06
9.686162954504367234e-06
9.473482054382267165e-06
9.296743901415114940e-06
9.396632450741696494e-06
9.630404263872138212e-06
9.672142728897184174e-06
9.459371416823168728e-06
9.282217205933730459e-06
9.381582468968330211e-06
9.614895615441421822e-06
9.656336753756670629e-06
9.443451607298863491e-06
9.266334271374817189e-06
9.365826548992609458e-06
9.599293588833312466e-06
9.640866805063296298e-06
9.428065419993231274e-06
9.250978521054091034e-06
9.350458382123967189e-06
9.583888133363764112e-06
9.625417481970828065e-06
9.412579423135753858e-06
9.235470275925339222e-06
9.334943360578280334e-06
9.568378501157571411e-06
9.609920080323169420e-06
9.397095812126964992e-06
9.219998127451689964e-06
9.319478382132088035e-06
9.552916212957068023e-06
9.594457036558365603e-06
9.381630139841650319e-06
9.204529475867388006e-06
9.304007495968328028e-06
9.537444367824668792e-06
9.578985529182698676e-06
9.366159946166589752e-06
9.189061108281115610e-06
9.288541028828964307e-06
9.521979567465837363e-06
9.563522019288291410e-06
9.350697353766009303e-06
9.173599159238547085e-06
9.273079585331401800e-06
9.506518617547053305e-06
9.548061637403938760e-06
9.335237652448030241e-06
9.158140247351546226e-06
9.257621541470107727e-06
9.491061480298968421e-06
9.532605409258152390e-06
9.319782311700405619e-06
9.142685762211801817e-06
9.200854999650309751e-06
9.247105785145594872e-06
8.962810132506966889e-06
8.481997380874059739e-06
8.124700080915157034e-06
7.815130856231541594e-06
7.224351285606627233e-06
6.406176689883997678e-06
5.892867264896226702e-06
6.095468250175142000e-06
6.860844318318963449e-06
7.707842887812244836e-06
8.361527324239938095e-06
8.924273140845285327e-06
9.523205433413404016e-06
9.987979892362351621e-06
1.003464564656650010e-05
9.681577515299634988e-06
9.306911812129491709e-06
9.222950154717944981e-06
9.329891591098807150e-06
9.315149609128111868e-06
9.106786447308410054e-06
8.972953879665840303e-06
9.130025923423088673e-06
9.580809595171328508e-06
1.102576327348116599e-05
1.597155989740107286e-05
2.746395901579597979e-05
4.544702458540849109e-05
6.506532807766011940e-05
7.935211224290909479e-05
8.328493550200252130e-05
7.568946053778057264e-05
5.881592689705871131e-05
3.698727191256673925e-05
1.506723537226062729e-05
-2.951304260834533929e-06
-1.482992612666899615e-05
-2.024358427960946209e-05
-2.036415095757669017e-05
-1.711716913173533909e-05
-1.237216856773927162e-05
-7.433731391490382655e-06
-3.029942831807824253e-06
4.724666374349659485e-07
3.016257776207554800e-06
4.971701281555008245e-06
6.932463029363136308e-06
9.085673519330089026e-06
1.100212482437769911e-05
1.224940309037970790e-05
1.301921706911045033e-05
1.393477299341716515e-05
1.523407927573387937e-05
1.640643330132390343e-05
1.688160235514789411e-05
1.689218025604639727e-05
1.724461918396372428e-05
1.822011186026782555e-05
1.914880557274815692e-05
1.928439956171453917e-05
1.879508508673457932e-05
1.853378327825482480e-05
1.888637892915621938e-05
1.933013085561462619e-05
1.937451012980352972e-05
1.949001451349344601e-05
2.058397950093288688e-05
2.272004685137017454e-05
2.485483209266972648e-05
2.601065290712983004e-05
2.648775053965928740e-05
2.745705277277295936e-05
2.932185640290744803e-05
3.111922262749904148e-05
3.192956393238531197e-05
3.247176186871241979e-05
3.447690415873290990e-05
3.836660862096421225e-05
4.248246272276040808e-05
4.518256661687990297e-05
4.713265445822836938e-05
5.052854112526763611e-05
5.596667606839398197e-05
6.129322923009208597e-05
6.431791441610327641e-05
6.583060916334350474e-05
6.865937321430300307e-05
7.379194970738258601e-05
7.878932728188966649e-05
8.076174786871973324e-05
8.000735293338028322e-05
7.943873612859829784e-05
8.061375911111944535e-05
8.179215295784317437e-05
8.047002255083555500e-05
7.675354395209487595e-05
7.304607631027652999e-05
7.075712491936663991e-05
6.868256991449167494e-05
6.494338535801030441e-05
5.952832439902058190e-05
5.411317547436869343e-05
4.974825478467940310e-05
4.575043482963240491e-05
4.104724952294017403e-05
3.580068077233771568e-05
3.113024607418773444e-05
2.759401242319839910e-05
2.464735448894653114e-05
2.158500647441242415e-05
1.845824995415558417e-05
1.585039573862374098e-05
1.403663224971263930e-05
1.271690603366068096e-05
1.157559229041944517e-05
1.079365092415150365e-05
1.076211385907625015e-05
1.139656844969467509e-05
1.205425989005396438e-05
1.221698677629031756e-05
1.204200571950528920e-05
1.204564207173892207e-05
1.235127752660455433e-05
1.253501294961539031e-05
1.225430673506832603e-05
1.177153575793448474e-05
1.163617545463437069e-05
1.194953018429728815e-05
1.223523325120934482e-05
1.209189199136045198e-05
1.173403709208909949e-05
1.168289725831960204e-05
1.203173054595266609e-05
1.231150643579245304e-05
1.213640447679196829e-05
1.173792619739177639e-05
1.165080113374910418e-05
1.197600501252437200e-05
1.224641151712629465e-05
1.207377415901211627e-05
1.168493654300702257e-05
1.160970026785288193e-05
1.194520786899366510e-05
1.222221257958416183e-05
1.205202563773628054e-05
1.166227021476678407e-05
1.158413249517000164e-05
1.191618122733846518e-05
1.219025489903600988e-05
1.201824462446241272e-05
1.162787011367354831e-05
1.155007016109413271e-05
1.188300305104235899e-05
1.211678233834665317e-05
1.171711541176897305e-05
1.077291369395506970e-05
9.914259895270804892e-06
9.555681744973278655e-06
9.512906799801469990e-06
9.452361583370233439e-06
9.370191772960724985e-06
9.470006255339652901e-06
9.746279070266178265e-06
9.894442135461428543e-06
9.737459686162907335e-06
9.602515186874244511e-06
9.991469457005202928e-06
1.089299292441885345e-05
1.171062131208783432e-05
1.195719777926735339e-05
1.181346244308996070e-05
1.181519018983698784e-05
1.210190476372562659e-05
1.226207082723246992e-05
1.196125194933544137e-05
1.146577005775762406e-05
1.132563892441393461e-05
1.164046674076700763e-05
1.193120586895486015e-05
1.179383214985231176e-05
1.144094739043788149e-05
1.139280001851764837e-05
1.174253528272646595e-05
1.202160267467688137e-05
1.184492301118216843e-05
1.144471623879254471e-05
1.135622739304437728e-05
1.168067934605656154e-05
1.195095130773980629e-05
1.177864110008303780e-05
1.139037031707998028e-05
1.131573207822497156e-05
1.165172321834022171e-05
1.192903034860125196e-05
1.171765461430895480e-05
1.109938999945560867e-05
1.046683755827477619e-05
1.001778875908495870e-05
9.559101831656704708e-06
8.799675435361185586e-06
7.778735795607967312e-06
6.902093890900424844e-06
6.494640037231060327e-06
6.444014443823463018e-06
6.402432548230484238e-06
6.250451512052701538e-06
6.208708940487799690e-06
6.455816873479925262e-06
6.806322694450449482e-06
6.914633873235137397e-06
6.718486847314014133e-06
6.521108796630427411e-06
6.581549677499243868e-06
6.815319938017134528e-06
7.095317842999125962e-06
7.648715925594886688e-06
8.804643910230747645e-06
1.038449746747418395e-05
1.168119197551836158e-05
1.217105449662822097e-05
1.206251771857409376e-05
1.195815205443789830e-05
1.207522967470995918e-05
1.206850899022940823e-05
1.164593370699538890e-05
1.108987389707752890e-05
1.094505667540450662e-05
1.133448107332558329e-05
1.219256111635557504e-05
1.466973838725069543e-05
2.146241550142466073e-05
3.408763034033231973e-05
4.985106055427681053e-05
6.274200252353794125e-05
6.731907742392578809e-05
6.153554959220769427e-05
4.699179795992021778e-05
2.764574637173783180e-05
8.103117729489866909e-06
-7.869232526321643412e-06
-1.819776020668961646e-05
-2.262449481839461785e-05
-2.224220176948663843e-05
-1.871233885757663144e-05
-1.360912318655293284e-05
-8.183827337110068394e-06
-3.363571592656363019e-06
3.099253680283543244e-07
2.849369771963584171e-06
4.833939736463102282e-06
6.912650748845389243e-06
9.121765126966400618e-06
1.087037984363867891e-05
1.172710843303807955e-05
1.210733931788524462e-05
1.291036116006606838e-05
1.440901082248917773e-05
1.586455264096218692e-05
1.645031671564635775e-05
1.627797477704237889e-05
1.618272000041990282e-05
1.656883358461635998e-05
1.695491874640104056e-05
1.689860727945345582e-05
1.695328059284128484e-05
1.819936747781582937e-05
2.085024362418364069e-05
2.376110690567908429e-05
2.558626382538007268e-05
2.618282024236631868e-05
2.647555287694300177e-05
2.704510133380950358e-05
2.738933079026276715e-05
2.688944378126608512e-05
2.619001869116752205e-05
2.682782663012927191e-05
2.927099348679972030e-05
3.211613264262742727e-05
3.381990434882712308e-05
3.486324151261521953e-05
3.735085762295224876e-05
4.223018487303901753e-05
4.785178903557662865e-05
5.207839664284530292e-05
5.518693999779795273e-05
5.943747087702840932e-05
6.565612603360397310e-05
7.157587186656034410e-05
7.449866025876337072e-05
7.456970505533403219e-05
7.381754920934552441e-05
7.289619871322050809e-05
7.119361698851283261e-05
6.964847986749702431e-05
7.078477416785367569e-05
7.536256343283623607e-05
8.060895186452880529e-05
8.289019858444942256e-05
8.160387118578464279e-05
7.927763960910058064e-05
7.790437670247428621e-05
7.653459372407329247e-05
7.298553906128079521e-05
6.687530691617606679e-05
5.994711396863689650e-05
5.370371823566810808e-05
4.784244002684593403e-05
4.133348785187883394e-05
3.429064033245079871e-05
2.812942215198223293e-05
2.400082183137395057e-05
2.165681215068658387e-05
2.002537923787470775e-05
1.845130059050524888e-05
1.702953910485126106e-05
1.590293379870563501e-05
1.475213283141583807e-05
1.324043218255040324e-05
1.165808015101698208e-05
1.073313812929886067e-05
1.076552579771575213e-05
1.122937147775701641e-05
1.142077149804430209e-05
1.128390068737139952e-05
1.137315230508899426e-05
1.208183029082499195e-05
1.310473013704616883e-05
1.379697310243721325e-05
1.395910261059783399e-05
1.396045023786382898e-05
1.403676613956953320e-05
1.385609639629531829e-05
1.304289046950530019e-05
1.187369331034808650e-05
1.114738780569717578e-05
1.137529163204909857e-05
1.225182584821735364e-05
1.305049180755197438e-05
1.345554977967787921e-05
1.376720377069606372e-05
1.428825474333416710e-05
1.478737456823251408e-05
1.478835559896408593e-05
1.427434651879497710e-05
1.375177056576605071e-05
1.352120752364553027e-05
1.320463477798305036e-05
1.222765870245371506e-05
1.065484203006373863e-05
9.273755711683713990e-06
8.716836849599165132e-06
8.758874447819829914e-06
8.721601312406976626e-06
8.395416972595701608e-06
8.254335018641083320e-06
8.684061549098613867e-06
9.333127034136318170e-06
9.519407448740338759e-06
9.118566801563649169e-06
8.731498082846980211e-06
8.868442945251387425e-06
9.270472562617173410e-06
9.303925726435719167e-06
8.851803725419734854e-06
8.493527659634933925e-06
8.704494955704860016e-06
9.191137821153646538e-06
9.294241201736211125e-06
8.883841437725785090e-06
8.538042316519468377e-06
8.738942951682916017e-06
9.203232118319931197e-06
9.281643700328945156e-06
8.851387203869609687e-06
8.494053034738269903e-06
8.691892328789840296e-06
9.159505417184353113e-06
9.244598395781369865e-06
8.821515137116410607e-06
8.469827700710816387e-06
8.670849476535314197e-06
9.139198482351783680e-06
9.223224503660873425e-06
8.798161968945613178e-06
8.444406361729602507e-06
8.643837473153205417e-06
9.111323772722531553e-06
9.195192278494208795e-06
8.729167333002028835e-06
8.147505961587210934e-06
7.793201322260862127e-06
7.480126112580727937e-06
6.872832709752513005e-06
6.089236810279621232e-06
5.659691622225207101e-06
5.841641299399472699e-06
6.260322824891636654e-06
6.336092350389861084e-06
5.888622485452039434e-06
5.236728220545464300e-06
4.740531576098027922e-06
4.398086941681965111e-06
3.993057307656083102e-06
3.516078850286803060e-06
3.253888078597550025e-06
3.403903922098426254e-06
3.762552061759599074e-06
3.945860083214842212e-06
3.849378268408089767e-06
3.742328786460081791e-06
3.863827752639217696e-06
4.082516876561476225e-06
4.130758206838511500e-06
4.108214962796529209e-06
4.455266916563566794e-06
5.319190257456661249e-06
6.241230854515559273e-06
6.649205603423490962e-06
6.566844523332850280e-06
6.649738709818711304e-06
7.363675799356930678e-06
8.352019062796401281e-06
8.882199466958775892e-06
8.731358805592925095e-06
8.357067847121839695e-06
8.555202011264311171e-06
1.095973057182219488e-05
1.883800125663084494e-05
3.537546692286477196e-05
5.957836085020708726e-05
8.453477858950971912e-05
1.008659288859859148e-04
1.021561644733811383e-04
8.775654734216306650e-05
6.203079304481422620e-05
3.184549503411237994e-05
3.957563482242907352e-06
-1.687166267189945876e-05
-2.867418793168133911e-05
-3.205224969129884369e-05
-2.927090860438389975e-05
-2.304778758384156637e-05
-1.554716688240954543e-05
-8.107772332152003996e-06
-1.629120582793696672e-06
3.158855476717916544e-06
6.035419399070464266e-06
7.693108756070269938e-06
9.269547200264743588e-06
1.121332198668220774e-05
1.290630189582496201e-05
1.360222080751521601e-05
1.350740354882585565e-05
1.367955761823341821e-05
1.483035547159021792e-05
1.649036985786466472e-05
1.766297400850946815e-05
1.816472088417699248e-05
1.879425370090199857e-05
2.006860195602988450e-05
2.135763071802331640e-05
2.165538080373930575e-05
2.099007715704335203e-05
2.056770899790853088e-05
2.129052150966377960e-05
2.262951101831567211e-05
2.349637470615806946e-05
2.391127698819001579e-05
2.506181829668186893e-05
2.753629410947672774e-05
3.019099895438387754e-05
3.146066681487766787e-05
3.153143602783336661e-05
3.231483004478973318e-05
3.498687244813703000e-05
3.837298692982026201e-05
4.053015439939454178e-05
4.148837203761207533e-05
4.323973589127230694e-05
4.682437938913941889e-05
5.074021525328981417e-05
5.311219316421828598e-05
5.472140746419714189e-05
5.850349974806564186e-05
6.560828762183070287e-05
7.327644648351650761e-05
7.785275034815920250e-05
7.915264949031583551e-05
8.037475864263525743e-05
8.364790438077098996e-05
8.719049239891500094e-05
8.791375357835117909e-05
8.580214777011235209e-05
8.395233051079570524e-05
8.443661144753812544e-05
8.625158882148970636e-05
8.784886450231050735e-05
8.923913480109017544e-05
9.032306419127566295e-05
8.911644052727990247e-05
8.340148026901086367e-05
7.351296794153121792e-05
6.226243851408625688e-05
5.215361756715507539e-05
4.358283805053199628e-05
3.588988241411957903e-05
2.917782563772333915e-05
2.438616736151849688e-05
2.190722260183571935e-05
2.082978604941877873e-05
1.978351103496891970e-05
1.825102615318121565e-05
1.668299882552527695e-05
1.542705452625969063e-05
1.412261862939779444e-05
1.236824373566026510e-05
1.060835105234209018e-05
9.908463813284874969e-06
1.070709234276212034e-05
1.216052469179351801e-05
1.306887382085228269e-05
1.315893936125699940e-05
1.304881563475764648e-05
1.311376792756248317e-05
1.293202439977862584e-05
1.202557131092188272e-05
1.079935551958485042e-05
1.033585037734203645e-05
1.113867030530147759e-05
1.245410037445618123e-05
1.317148210552724223e-05
1.308676744083926423e-05
1.285797714728609530e-05
1.287165708349552042e-05
1.269593911689582700e-05
1.183139020444409468e-05
1.061833573139205403e-05
9.974834899234633474e-06
1.025523208483133447e-05
1.080230224057928030e-05
1.082492281460507912e-05
1.040952382170781963e-05
1.031684052805157468e-05
1.085299195570281694e-05
1.140028270773982821e-05
1.125695064748860098e-05
1.060987763406113780e-05
1.030235858323384804e-05
1.069033373654403014e-05
1.117165208408076157e-05
1.099223725380499545e-05
1.016745120317322901e-05
9.373266734151862348e-06
9.041521925829390497e-06
8.872666365055133000e-06
8.434275721749806475e-06
7.987273934896982748e-06
8.268304898083154788e-06
9.429647835817050823e-06
1.065912937628817499e-05
1.105021164079897947e-05
1.054994225442160616e-05
9.844279492152751871e-06
9.427636008942146619e-06
9.083795410794229163e-06
8.415851746980176624e-06
7.592290562712000219e-06
7.235697034378232466e-06
7.596909272817359500e-06
8.163056166621675017e-06
8.288397132995714648e-06
7.994461682395322122e-06
7.866800094915908932e-06
8.204621498502499786e-06
8.589421527342655462e-06
8.477093052084667198e-06
7.970077162661331235e-06
7.700655422645267257e-06
7.980338011452714958e-06
8.377112490259172608e-06
8.361168789915712768e-06
8.151883314041318340e-06
8.497450686078970159e-06
9.597444900697743852e-06
1.070065937596245348e-05
1.099746240081239452e-05
1.061921550879054415e-05
1.040810369107428932e-05
1.075883381344071967e-05
1.112661755901369416e-05
1.081354270481076787e-05
9.876582353384443115e-06
9.013355041212727913e-06
8.658762839881671924e-06
8.503343930019693811e-06
8.057473558606368383e-06
7.420474679872967917e-06
7.178781689228857030e-06
7.578005309292794517e-06
8.121713021989177998e-06
8.190618440690756172e-06
7.832471213819043216e-06
7.652114745756357636e-06
7.958500112947569508e-06
8.334049488729824030e-06
8.229528876977560591e-06
7.698271759585754829e-06
7.219142667421735934e-06
6.959578519004324885e-06
6.584105662784236241e-06
5.837794258922790263e-06
5.038604225618772709e-06
4.748537804518513611e-06
5.044226423918246130e-06
5.402739802388847548e-06
5.371382295291105511e-06
5.122139619865162298e-06
5.149705868914751233e-06
5.537828585889869501e-06
5.821467444567220842e-06
5.626589173164602276e-06
5.198555004687092289e-06
5.083737453876611700e-06
5.390289374299954352e-06
5.653467067856851993e-06
5.483633082333829917e-06
5.104113571301326220e-06
5.040701098411085668e-06
5.428555294361572777e-06
6.024959788561533026e-06
6.871041547909335598e-06
8.331725669757034043e-06
1.027876097844215825e-05
1.179778252689675153e-05
1.208483706924778382e-05
1.139261017872709336e-05
1.072992532638927785e-05
1.068475305114870237e-05
1.128982860277123375e-05
1.381250381907051113e-05
2.203303869929461043e-05
3.976091039366404570e-05
6.602249571972919416e-05
9.350771683294255721e-05
1.124656399135051481e-04
1.160799591623374027e-04
1.030343114991048880e-04
7.696155937163158534e-05
4.444357716647058987e-05
1.263743084486859585e-05
-1.281386504553200909e-05
-2.896892763771864810e-05
-3.569057319528597312e-05
-3.489907996265517585e-05
-2.935787264223223465e-05
-2.155274564868444912e-05
-1.326260207250352273e-05
-5.804000898709535267e-06
-1.667779043240427594e-07
3.464595912491008305e-06
6.093696759562204977e-06
9.121391411956062079e-06
1.283797505115096750e-05
1.608157201352571219e-05
1.772027790780844635e-05
1.813609213011238764e-05
1.874470177723909227e-05
2.019631620648846082e-05
2.169660529387207925e-05
2.235429566683105171e-05
2.268855031078366756e-05
2.408499099157658532e-05
2.680980808941327962e-05
2.937044710609915837e-05
3.028017529224282989e-05
3.001564396700985709e-05
3.046097800764369144e-05
3.243576347740767518e-05
3.472507641523040259e-05
3.594031919919707439e-05
3.652947519990080023e-05
3.805928157613469863e-05
4.076032298677139141e-05
4.293710584905869053e-05
4.328964339321211217e-05
4.304200086130383177e-05
4.475283133059273870e-05
4.904491194478842887e-05
5.362288956075511099e-05
5.610550119479549013e-05
5.703306563188875934e-05
5.904044116951375290e-05
6.323447816393695103e-05
6.775595859874411562e-05
7.065399792089087610e-05
7.300568612807916725e-05
7.762162360076326633e-05
8.493017879870689386e-05
9.187275943062390017e-05
9.568032651266741352e-05
9.746454830484105195e-05
1.005526055236407321e-04
1.057785985439634458e-04
1.101674609379494751e-04
1.108603781445598603e-04
1.089882859119118834e-04
1.081289004402725886e-04
1.094487198071155505e-04
1.102108765940942588e-04
1.076026546872760619e-04
1.026062161580436669e-04
9.864393163406554455e-05
9.695879662910755824e-05
9.513423221222808482e-05
9.052534439648179671e-05
8.367502397994196163e-05
7.724718881424115274e-05
7.232783934294243974e-05
6.728112859591075688e-05
6.039709875950758202e-05
5.246504402593528182e-05
4.592460117906628882e-05
4.191294727388295867e-05
3.914004450712536961e-05
3.585624684412411738e-05
3.205283292623479688e-05
2.899267811674772772e-05
2.705788396840714166e-05
2.512053756543037499e-05
2.212049692881990257e-05
1.851115742171566018e-05
1.572459955292715235e-05
1.443076196044643299e-05
1.387263299510972158e-05
1.308256849831861544e-05
1.222785562085081390e-05
1.224825287139662819e-05
1.333608885670629367e-05
1.442676663088718904e-05
1.451179364196507952e-05
1.401782954266725071e-05
1.425417143174056436e-05
1.557389991951368599e-05
1.685607397696904709e-05
1.709260345973519706e-05
1.680490414609406072e-05
1.727127849784126842e-05
1.865878492687306792e-05
1.965370311178088426e-05
1.909860083708942799e-05
1.749724265743634902e-05
1.639913564828068720e-05
1.644033631224559844e-05
1.668205187010839483e-05
1.608118279924799880e-05
1.501574500774856491e-05
1.477433141959798905e-05
1.571292027683990285e-05
1.667844120904585936e-05
1.647698229820248483e-05
1.520939830228109000e-05
1.365327372937360431e-05
1.202889860871731596e-05
1.030892125947882076e-05
9.276760069207182300e-06
1.008951121168218237e-05
1.266243508505453557e-05
1.533404683739398512e-05
1.651037560627551966e-05
1.620791556079919504e-05
1.562571393491675995e-05
1.543977620077754070e-05
1.509637585973524471e-05
1.394012088260387424e-05
1.242202922328411905e-05
1.159925169769038825e-05
1.168821438838071109e-05
1.178252994249719800e-05
1.112653823252690181e-05
1.017512042172188347e-05
9.967868559284649526e-06
1.066451437046378056e-05
1.128756207164638470e-05
1.098412216514031889e-05
1.004000662687675842e-05
9.367738736672815230e-06
9.263082360846625364e-06
9.112461337679008118e-06
8.433162587885538130e-06
7.785446944310816267e-06
8.151724129911815711e-06
9.542446306104431910e-06
1.081746160886628584e-05
1.104558034722746703e-05
1.060633041360932807e-05
1.056258933879817054e-05
1.116567168395829112e-05
1.155707728578074789e-05
1.103523846061696863e-05
1.010961402954307148e-05
9.868927112981954028e-06
1.051166630791033209e-05
1.108609847725439186e-05
1.079354685507288920e-05
1.006814864486737282e-05
9.956742738124768507e-06
1.064862003038881440e-05
1.120670560587193625e-05
1.085890211415060093e-05
1.006691758898493073e-05
9.898694670078561590e-06
1.055491265121684699e-05
1.110053592460161292e-05
1.075881335454770184e-05
9.983586933075637015e-06
9.834847156328322475e-06
1.050731980230065499e-05
1.106287345910090699e-05
1.072434732803227081e-05
9.947052543776636386e-06
9.793309266337275234e-06
1.046013905910135971e-05
1.101109086107489307e-05
1.066984395496596134e-05
9.891777970309857589e-06
9.738754633372919710e-06
1.040710773973864330e-05
1.100103766096516697e-05
1.093094043282398682e-05
1.093649645743494251e-05
1.211904959246017927e-05
1.425962104035665329e-05
1.582082940432981741e-05
1.568716809003352429e-05
1.444938954456082503e-05
1.358239019243194675e-05
1.357511146361423401e-05
1.357093199409530112e-05
1.292146525614179336e-05
1.233978362286360439e-05
1.295279871177999535e-05
1.459452186685894234e-05
1.581768416741340463e-05
1.567650190915088855e-05
1.489367368416954387e-05
1.481408629287954716e-05
1.556780066881703246e-05
1.597234234890630602e-05
1.525162083866655162e-05
1.418669895108408936e-05
1.408898556385463798e-05
1.500097855903795795e-05
1.563828276606385464e-05
1.509769459207824230e-05
1.396100892608182192e-05
1.338257715529470036e-05
1.351340591264713183e-05
1.336929138506609698e-05
1.221449405886015852e-05
1.061243006120044010e-05
9.745716460529698535e-06
9.897602208833674678e-06
1.016194224078163266e-05
9.697792154871138497e-06
8.714404021179994529e-06
7.917812113025186552e-06
7.401335287341674003e-06
6.599895741962653600e-06
5.317459558569929886e-06
4.390027526709903828e-06
4.903577740151312358e-06
6.798984376107264557e-06
8.764885039610193404e-06
9.681084349391702999e-06
9.782698818688844572e-06
1.006171451509322104e-05
1.077051466736231368e-05
1.114369526647805873e-05
1.074097594411099449e-05
1.042735227968415667e-05
1.138241076688313767e-05
1.345604175371153113e-05
1.528532252121427124e-05
1.600336208981250870e-05
1.619850643152612280e-05
1.689518185777636264e-05
1.800173225379005299e-05
1.850287172398434836e-05
1.842248093633485213e-05
2.018391964733150308e-05
2.727856279945484511e-05
4.118061705070417478e-05
6.030248048527718236e-05
8.260219397201204287e-05
1.074904037612738343e-04
1.329284960399326927e-04
1.520682496372023434e-04
1.558801574746074693e-04
1.394346689679065894e-04
1.051296988415633288e-04
6.107979852645985589e-05
1.722582318385857062e-05
-1.823356001919058001e-05
-4.080565494582967301e-05
-4.988855159064451870e-05
-4.781823028877025324e-05
-3.857782201069512117e-05
-2.640556027791601348e-05
-1.427596794703614382e-05
-3.072469510252568660e-06
7.417457601957359374e-06
1.666978726040076262e-05
2.326362622449222161e-05
2.669200616337368299e-05
2.852904799301294930e-05
3.092360707704475044e-05
3.412433276710003579e-05
3.640316153002983406e-05
3.654170873653463092e-05
3.561636286089690752e-05
3.572291856215423114e-05
3.733762939688907721e-05
3.895598702779376205e-05
3.946689053540214576e-05
3.984790780661593763e-05
4.172429727400850559e-05
4.479994630043638979e-05
4.693337810333442147e-05
4.696714365146877822e-05
4.644496547066685158e-05
4.769256436302032979e-05
5.068709855286416361e-05
5.303662578768587665e-05
5.326128970424662571e-05
5.291216512978432851e-05
5.455155763534547190e-05
5.831663762257275127e-05
6.181462352486426963e-05
6.356124452541400617e-05
6.515823668546300582e-05
6.902292414412494477e-05
7.478955491822748998e-05
7.951855525732643912e-05
8.161696662781206730e-05
8.311802090073604308e-05
8.700941875615737428e-05
9.312087569551207825e-05
9.825092815560183086e-05
1.005688710204407542e-04
1.023345372184047980e-04
1.069468067273515087e-04
1.141706202909931975e-04
1.201564370895096391e-04
1.223403379101110770e-04
1.225457797794321600e-04
1.241013832380876097e-04
1.270952149471843212e-04
1.283498207986063426e-04
1.260561399017836670e-04
1.224992160002559376e-04
1.210162509551603201e-04
1.214612609784167013e-04
1.204366039556485917e-04
1.159222532802115072e-04
1.099503421705521895e-04
1.057527766956497443e-04
1.036922555874647219e-04
1.017104471599766493e-04
9.859420358850769066e-05
9.444791742402133979e-05
8.858954826746112318e-05
7.944946455737424943e-05
6.703086898484641532e-05
5.408403875917165265e-05
4.394138029371773204e-05
3.759049579780815437e-05
3.352149082503903219e-05
3.017612552237360660e-05
2.763772059076768209e-05
2.659074305820119947e-05
2.645251833864396932e-05
2.554612036252624637e-05
2.314496180065999349e-05
2.058604358713342353e-05
1.972708965842048150e-05
2.060512880390487245e-05
2.146774337397259710e-05
2.107245701780057455e-05
2.009787295310382329e-05
1.991918731503061648e-05
2.056333548719907963e-05
2.068625520259560939e-05
1.953976165606779601e-05
1.813619609060943184e-05
1.796107729961621456e-05
1.897070168340173394e-05
1.965408473719862034e-05
1.908292834541523470e-05
1.813380110651413408e-05
1.822570768569830378e-05
1.931467892752767720e-05
1.997669865847234675e-05
1.949478573070276440e-05
1.894646829005264114e-05
1.969611506144254727e-05
2.140494085483023290e-05
2.236554759163545761e-05
2.179320644029968243e-05
2.097817255310295518e-05
2.159444462004155284e-05
2.339454575797099799e-05
2.446008916290429670e-05
2.360799219524277120e-05
2.174840299583570978e-05
2.055041297396919474e-05
2.029663535692360782e-05
1.980062869967139455e-05
1.835989209939348704e-05
1.694171807744718021e-05
1.693481868671136396e-05
1.818727078315284193e-05
1.909892663884637276e-05
1.868715411282020146e-05
1.776947720655893203e-05
1.762981816813430640e-05
1.811229387399009968e-05
1.792236415044539565e-05
1.651892101819034709e-05
1.457102788219092043e-05
1.259253322147127415e-05
1.040589425545256355e-05
8.287270908282083330e-06
7.581915297202672220e-06
9.328887339321592656e-06
1.264905096773548491e-05
1.537052781817832792e-05
1.630605652246568609e-05
1.629838058765060651e-05
1.672991284815002788e-05
1.754832936514777409e-05
1.746076447804707457e-05
1.577751780053331430e-05
1.330466251626542015e-05
1.130661717554354065e-05
1.006153903073493624e-05
8.931396844281528060e-06
7.812614377769185026e-06
7.816417153126829735e-06
9.902132278900075858e-06
1.323260954215732646e-05
1.574742700606305326e-05
1.638805903506636207e-05
1.610438924705225090e-05
1.634425525974293002e-05
1.707648158915999004e-05
1.699477019141958653e-05
1.537670038922205236e-05
1.299138618696636581e-05
1.107305822941098876e-05
9.881964256443728732e-06
8.774898862151728953e-06
7.652855557928207994e-06
7.636880576546057096e-06
9.697050281962726889e-06
1.300479944978391417e-05
1.550464474098273593e-05
1.609800369958420523e-05
1.558738391910542494e-05
1.527904254897940252e-05
1.523784925404985231e-05
1.451267450364121276e-05
1.285111033256901670e-05
1.140254009545970422e-05
1.135553964434091909e-05
1.236707021456962403e-05
1.299142981702457908e-05
1.255638972045917629e-05
1.195419691410156207e-05
1.229420474685165947e-05
1.329503614025677634e-05
1.365169854561837323e-05
1.289104754784178358e-05
1.218021021725954951e-05
1.284428449977193732e-05
1.452585966963003861e-05
1.558529043747710192e-05
1.518298228412901397e-05
1.419887358571294585e-05
1.386861013358892580e-05
1.410146730971615397e-05
1.377136968988288238e-05
1.248134233682799470e-05
1.129245764844743286e-05
1.136432471705434686e-05
1.237129739639212365e-05
1.291104400757235859e-05
1.240191588516797482e-05
1.192246156804447698e-05
1.274483704968857211e-05
1.449568606887702029e-05
1.554786239975991340e-05
1.508977853294036622e-05
1.403236990461212254e-05
1.363624632882132328e-05
1.382522110682086673e-05
1.343581204760556285e-05
1.187973844354846205e-05
9.883888257499016334e-06
8.413528686298545316e-06
7.412742893326542890e-06
6.133529645017184268e-06
4.461320683689957170e-06
3.340188798165773700e-06
3.688345403860457112e-06
5.172396528629862936e-06
6.539950186622234209e-06
7.258027245818350983e-06
8.268363518024612568e-06
1.059703517784818359e-05
1.362684788174840280e-05
1.561229670205489505e-05
1.592603467107096246e-05
1.600843006458399842e-05
1.756416943275297034e-05
2.027767942194075846e-05
2.216822980347490639e-05
2.215726426831901463e-05
2.140791738293706852e-05
2.165111993239212542e-05
2.281436290623722551e-05
2.330967764301447928e-05
2.280826958403856330e-05
2.389556224380718334e-05
3.010258795748106626e-05
4.257260855377827721e-05
5.988052048897094979e-05
8.097286075725205166e-05
1.058976803095411021e-04
1.320741627457053767e-04
1.516316480425895330e-04
1.549501288669697470e-04
1.371107664277707971e-04
1.008958602625663982e-04
5.491468976742981526e-05
9.512950064509363615e-06
-2.689670862720529323e-05
-4.984881355038658473e-05
-5.906208858656277947e-05
-5.736059971860393977e-05
-4.896832249257852257e-05
-3.785812787328244049e-05
-2.656527943660842202e-05
-1.593764558516161660e-05
-6.140047067064753374e-06
2.187403547528039348e-06
8.249312590798369297e-06
1.258173817373752392e-05
1.731380195551866002e-05
2.393014770533680863e-05
3.115223957828734647e-05
3.616462437073150976e-05
3.792224471392437716e-05
3.828950320307320291e-05
3.951118362975127187e-05
4.139764720084818149e-05
4.195747456577061718e-05
4.053047191055499218e-05
3.911016544534477149e-05
3.987126105999751771e-05
4.227490446550469813e-05
4.390476568350373419e-05
4.385355710055508139e-05
4.392809658536826051e-05
4.602813141166486194e-05
4.931823212975690849e-05
5.116859062086982687e-05
5.072745482718446410e-05
5.019298517012617884e-05
5.182881616936947379e-05
5.482579242662416052e-05
5.647660858202219886e-05
5.610451132825259712e-05
5.629492258261369856e-05
5.953306420548067486e-05
6.476038359065370360e-05
6.870603465307080710e-05
7.030093068671122508e-05
7.215590207129133802e-05
7.695383746308156851e-05
8.359436101818351421e-05
8.847431593970264305e-05
9.027466437195149273e-05
9.169493781184335287e-05
9.572664362596025188e-05
1.015910129237730647e-04
1.059488566956065541e-04
1.077169480567892121e-04
1.097096586579725805e-04
1.146440277009291110e-04
1.209787795544642813e-04
1.244884760153617761e-04
1.236611669163499442e-04
1.215625936931332015e-04
1.215356888834702410e-04
1.226495961546491490e-04
1.211344642899947249e-04
1.156803078755947053e-04
1.092101249762937788e-04
1.049340522594677851e-04
1.023460260058201769e-04
9.837928817470274322e-05
9.182249039122957987e-05
8.495283746890608129e-05
8.022552346821964283e-05
7.677129227803781899e-05
7.161942615040145900e-05
6.375617965776101651e-05
5.539530748987555599e-05
4.901523156163361454e-05
4.447792843483672312e-05
3.990371100384422064e-05
3.465832902616446066e-05
3.035810523030441988e-05
2.861121804537208960e-05
2.863171055739701355e-05
2.808519718857551274e-05
2.597252522235393880e-05
2.364683947922707267e-05
2.274748259220767539e-05
2.294455046402948730e-05
2.253152803769754956e-05
2.093543582284267417e-05
1.955787879446533483e-05
1.972461530235435859e-05
2.069042122416309032e-05
2.063624013464344264e-05
1.934179259778536067e-05
1.879023070925738071e-05
2.070039124019283937e-05
2.423470625821139049e-05
2.695612536702761872e-05
2.775064801314186817e-05
2.789944125379602600e-05
2.895983353711842887e-05
3.046301832792985462e-05
3.062441795042597406e-05
2.894807832507279477e-05
2.703971156152485420e-05
2.652002687250222304e-05
2.697485883500102039e-05
2.672820691448537153e-05
2.529883074113508350e-05
2.414320881303819275e-05
2.462782380869657606e-05
2.607392887705099643e-05
2.660679619228406489e-05
2.564843927661056560e-05
2.465753755698581686e-05
2.507259507564469150e-05
2.631786056678273673e-05
2.661767233331261236e-05
2.546626754305713589e-05
2.435893792572426238e-05
2.473824592226829015e-05
2.601016775363924373e-05
2.637084282445457920e-05
2.528707750097857951e-05
2.419302131431577419e-05
2.437566734451260015e-05
2.510183769585888972e-05
2.467251987215003217e-05
2.287910889945883968e-05
2.144780821444317210e-05
2.172589315917669369e-05
2.275127705199593122e-05
2.245624686191130399e-05
2.038079599188297693e-05
1.827394142427617762e-05
1.779115326287910594e-05
1.838464469846174927e-05
1.828242420072478765e-05
1.715689962273703948e-05
1.668266432885958994e-05
1.812920797926414663e-05
2.038328967942993326e-05
2.124161865925736341e-05
2.024915722702817230e-05
1.922656495390559945e-05
1.974230725691875876e-05
2.100370669555462998e-05
2.105367832760728997e-05
1.956487376856013802e-05
1.836979707262562472e-05
1.896597370969145459e-05
2.045135054420020866e-05
2.076105851615743126e-05
1.948811278433398977e-05
1.842412490457154061e-05
1.906165601682872907e-05
2.051858733477853884e-05
2.076122858802152427e-05
1.941312914700628632e-05
1.828812176736097341e-05
1.888976613390541283e-05
2.033669866461626291e-05
2.058903266665436372e-05
1.926113669492690692e-05
1.815806661961433350e-05
1.877714034116260394e-05
2.023403874037717792e-05
2.048885232073662335e-05
1.915786844826932841e-05
1.804884761473272249e-05
1.866163229251971656e-05
2.011365692718748856e-05
2.032449084737000634e-05
1.872318383363968337e-05
1.683237961329207521e-05
1.611163853377878830e-05
1.609312486394910233e-05
1.533770084297264794e-05
1.384161150300896719e-05
1.342246784297440452e-05
1.530516883726483073e-05
1.821502612275190499e-05
1.975732708988493262e-05
1.932297190965159785e-05
1.864986686117801404e-05
1.929730832203995221e-05
2.051787875886197960e-05
2.038488189108719517e-05
1.845572639304960785e-05
1.633265254389352895e-05
1.550266518303488955e-05
1.548414672614707710e-05
1.475933572220740795e-05
1.309412565003232045e-05
1.198573109079222927e-05
1.259776487869001059e-05
1.402278796925094505e-05
1.424277253528374358e-05
1.252695613345132508e-05
1.012496402902612705e-05
8.423379515081962316e-06
7.265595668175204853e-06
5.767444084914324923e-06
4.250581042034052482e-06
4.360854323679723235e-06
6.986164086869440016e-06
1.075642342631298725e-05
1.333409402547023519e-05
1.396322358781141235e-05
1.398655935383278108e-05
1.472242795857451349e-05
1.564165454444584676e-05
1.533633994511463699e-05
1.390807467204377583e-05
1.331721463030180046e-05
1.492983244170984836e-05
1.758160033599908594e-05
1.894329397951395486e-05
1.846830936316381960e-05
1.811069929775416127e-05
1.999469007340960402e-05
2.455429093820844682e-05
3.222285538892222809e-05
4.612229751864171153e-05
7.048833286402459916e-05
1.049036725845662834e-04
1.407580649841278300e-04
1.646120836461847209e-04
1.657399062915790625e-04
1.415673730016608846e-04
9.797349464934994160e-05
4.586744719770318455e-05
-3.264981318179700019e-06
-4.089193451018120556e-05
-6.311701181658834262e-05
-7.053006389930066328e-05
-6.680023778112035248e-05
-5.663850187620742433e-05
-4.379769291698592951e-05
-3.020700548336836138e-05
-1.693841358092284836e-05
-5.539585861126739564e-06
2.604785326980318193e-06
8.264756574264911531e-06
1.428287846120767107e-05
2.241643813486462143e-05
3.102410825469024595e-05
3.706443070470553269e-05
3.998866087525135125e-05
4.233663553364373967e-05
4.617394804672566433e-05
5.022398491096593886e-05
5.166299199196657823e-05
5.011922455501015820e-05
4.839448654699229555e-05
4.886201926620390129e-05
5.051495175439657840e-05
5.078070310977078898e-05
4.950232663072499814e-05
4.947193798500080874e-05
5.268853715547782720e-05
5.747013829155574828e-05
6.044158210273191487e-05
6.082688950349621990e-05
6.126591386189685887e-05
6.393561345323882632e-05
6.742178158589369268e-05
6.885067845579748993e-05
6.819260553983409604e-05
6.863838241189464703e-05
7.246749533953442742e-05
7.802505526377540729e-05
8.202741537224407964e-05
8.407198720528156729e-05
8.710615064214746750e-05
9.318568097382128729e-05
1.003133026083542545e-04
1.048678221526235795e-04
1.065881061654768986e-04
1.092006755509548145e-04
1.155373771748459231e-04
1.237606464359252909e-04
1.299405696454184475e-04
1.333534212916253465e-04
1.370841166369477036e-04
1.432464893018978310e-04
1.495944501346813105e-04
1.522557027877355167e-04
1.508919592475432706e-04
1.492010799328690092e-04
1.500148666807706792e-04
1.516142315315164278e-04
1.502689392128546571e-04
1.455025664566649576e-04
1.407376981273867830e-04
1.384802552114512990e-04
1.367793526792930093e-04
1.317717602179766597e-04
1.228242007515522921e-04
1.133435010639089672e-04
1.062966831639819822e-04
1.006138057729504589e-04
9.319781461983890614e-05
8.352259763636721084e-05
7.438371424357375890e-05
6.799247231493356510e-05
6.315148966621673249e-05
5.733335882364749999e-05
5.046063937813836670e-05
4.504867850834452716e-05
4.266011053004288350e-05
4.172280515975473040e-05
3.958028071343071470e-05
3.581945230412589244e-05
3.249891045194581535e-05
3.118957982655835121e-05
3.089097184488949331e-05
2.951829998568311533e-05
2.686597374088116834e-05
2.498512069039133786e-05
2.537906461187443985e-05
2.693830338709922459e-05
2.750385581331853512e-05
2.680032606437587889e-05
2.665189405285941802e-05
2.822543773529385201e-05
3.020104663077535971e-05
3.049447678416622817e-05
2.920304352824583871e-05
2.859598644020494411e-05
3.001878478180877862e-05
3.201651069145493116e-05
3.224428268634137445e-05
3.052406261581191679e-05
2.897906930221925861e-05
2.913220872330133613e-05
2.995303040941826219e-05
2.947254797124690835e-05
2.765872113701509148e-05
2.655331181132454757e-05
2.745979963849736402e-05
2.909673510775705603e-05
2.929430922345652719e-05
2.791068307263574214e-05
2.697098550621711014e-05
2.783115073693113786e-05
2.929636433184828559e-05
2.928492575593469590e-05
2.772205803905159195e-05
2.662782546060259265e-05
2.721903511576641255e-05
2.810654010995834311e-05
2.713736702350369906e-05
2.438945112431467545e-05
2.224746463038536340e-05
2.233073127214849532e-05
2.348857899713197348e-05
2.362576404770456851e-05
2.267757016612214377e-05
2.263691165262874194e-05
2.468216227345977756e-05
2.737092611827563558e-05
2.839666584544865306e-05
2.754526269573827162e-05
2.684349900868881857e-05
2.770726833395241659e-05
2.903163554518869828e-05
2.882577717092608673e-05
2.708568414237264537e-05
2.587218532995742406e-05
2.641335582210411757e-05
2.735067207338384013e-05
2.669612369130914813e-05
2.478814956909738975e-05
2.403192612762105541e-05
2.562056711029396901e-05
2.775905956154411540e-05
2.782957153887322596e-05
2.562491719696864760e-05
2.347710950966656554e-05
2.313191302341100145e-05
2.385725929701247965e-05
2.445571633530389507e-05
2.531154479673886187e-05
2.689260471058028127e-05
2.788818430396696984e-05
2.665700363701269731e-05
2.378014867720832420e-05
2.169250343329021160e-05
2.169602971724321323e-05
2.245435341718650607e-05
2.196377408615052528e-05
2.022461699487699833e-05
1.908516584122757901e-05
1.959075424044810640e-05
2.051837853501198603e-05
2.014542474885442993e-05
1.879164830875126074e-05
1.850115118732343451e-05
2.018387820728255349e-05
2.221939564099618665e-05
2.252003090097410253e-05
2.125730197701858267e-05
2.054672750273463862e-05
2.150522434830899187e-05
2.275260176171618626e-05
2.243650220823549781e-05
2.102298706741337995e-05
2.092981521475281180e-05
2.326406473642723383e-05
2.614712652980961518e-05
2.699983034951551199e-05
2.565566300741432788e-05
2.420181694686385709e-05
2.397308047811377578e-05
2.391135550526378908e-05
2.241674154626088251e-05
1.995225773086748217e-05
1.870306629393281381e-05
1.967920063751741946e-05
2.129675745865363458e-05
2.144220143018240831e-05
2.021785378224094727e-05
1.965304800853774077e-05
2.078547645908223560e-05
2.217827789159261418e-05
2.186787482660047631e-05
1.994248123701080187e-05
1.826440949671313284e-05
1.784162410442754218e-05
1.745985642706456077e-05
1.542994502818426496e-05
1.212641450389444672e-05
9.788584590094043502e-06
9.717989943634572104e-06
1.071684033102258477e-05
1.094094292661495926e-05
1.064498522541308677e-05
1.195444287933066436e-05
1.579273690266486563e-05
2.022865567320809694e-05
2.267340834604874170e-05
2.307843318457747749e-05
2.383111922677949696e-05
2.634980828936190966e-05
2.903505186982082559e-05
2.945389214684830038e-05
2.768218416389341488e-05
2.623148231127808114e-05
2.675321113237079214e-05
2.807562950460815743e-05
2.824640993523005206e-05
2.783435617732401849e-05
2.991019797550126087e-05
3.659358013523256414e-05
4.736141154263621489e-05
6.188597620723448227e-05
8.271093235459616951e-05
1.125393596530225069e-04
1.483073587427969449e-04
1.790767909372499036e-04
1.912275776754317181e-04
1.766179123907764628e-04
1.367303878444672089e-04
8.096969633857790775e-05
2.205383953382298126e-05
-2.855988483728230749e-05
-6.368708029641981087e-05
-8.134962300119407330e-05
-8.391175801424465160e-05
