4.296539762048080444e-06
3.140717864973416551e-05
1.105834438231688985e-04
2.563253283402912720e-04
4.511182717949036676e-04
6.557250461964220277e-04
8.305379056021636869e-04
9.511675534463369863e-04
1.014267399567755305e-03
1.034204394045316281e-03
1.033718333550078493e-03
1.033941938553500136e-03
1.048470300699913234e-03
1.082141942637144128e-03
1.132227082471585957e-03
1.190403556763568660e-03
1.245808598855088507e-03
1.289342495940628153e-03
1.317134772209136665e-03
1.330580272912885911e-03
1.333454686551876957e-03
1.329273610262209429e-03
1.321034821742734415e-03
1.312205214161300771e-03
1.306357484419974147e-03
1.305217409934210718e-03
1.307613616328168410e-03
1.311031213860678344e-03
1.314137577797947886e-03
1.317287612312166567e-03
1.320692431430106313e-03
1.323071848506321728e-03
1.322857879784836762e-03
1.320307970796508017e-03
1.317480235966797964e-03
1.315971418631764218e-03
1.315422338922789692e-03
1.314658909638194645e-03
1.313619847365173499e-03
1.313394907676010588e-03
1.314516434868524168e-03
1.316078045515185410e-03
1.317158433223581272e-03
1.318212369665276934e-03
1.319975238594902006e-03
1.321965645640744026e-03
1.323272924655479257e-03
1.324249398927010782e-03
1.326394901811102844e-03
1.330477944274413050e-03
1.335453004487342256e-03
1.339720788902761667e-03
1.343071373748655440e-03
1.346705076974358218e-03
1.351328500438910745e-03
1.355898025569319361e-03
1.358780563946636539e-03
1.359832356935023259e-03
1.360524582550459586e-03
1.361913103931112817e-03
1.363268743120208543e-03
1.363209602020455397e-03
1.361657561267231101e-03
1.359865732921392879e-03
1.358487347449459414e-03
1.356443603809743019e-03
1.352309049520244132e-03
1.346314202525022725e-03
1.340145415968010956e-03
1.334822073709465229e-03
1.329542518697532155e-03
1.323055718999749776e-03
1.315626764627850697e-03
1.308835504266785826e-03
1.303493315513771763e-03
1.298508860423679438e-03
1.292255891671059654e-03
1.284691580280125948e-03
1.277402032593135837e-03
1.271492458241845662e-03
1.266224748920072697e-03
1.260267236655738437e-03
1.253685171330952289e-03
1.247860344055608381e-03
1.243588767104395962e-03
1.240025751995811176e-03
1.235929470758294737e-03
1.231536264086283529e-03
1.228368096216890873e-03
1.227102201718195196e-03
1.226502621337662718e-03
1.224941740153200455e-03
1.222389332740022759e-03
1.220237903250482757e-03
1.219307252404627350e-03
1.218693557335451955e-03
1.216978287279608809e-03
1.214129797019213204e-03
1.211453095513965149e-03
1.209648400950057243e-03
1.207769326935325630e-03
1.204657174332160940e-03
1.200880230192673389e-03
1.198442171010538930e-03
1.198506743691856368e-03
1.200046946729406211e-03
1.201097617434131746e-03
1.200720511269188183e-03
1.198986029670497371e-03
1.195377144499229927e-03
1.188359031854660346e-03
1.177122545541838330e-03
1.163265739699191354e-03
1.149968063522373036e-03
1.139392739283259749e-03
1.131391829615521500e-03
1.124890503442312496e-03
1.119808687312109485e-03
1.116939581909982826e-03
1.116269884594262235e-03
1.116315093360959691e-03
1.115535040337920902e-03
1.114000379609400744e-03
1.113066858836153031e-03
1.113404211365369564e-03
1.113968442192300474e-03
1.113347568909608867e-03
1.111630933507365979e-03
1.110275452324675739e-03
1.110258049708250138e-03
1.111004018541417171e-03
1.111491523813750446e-03
1.111938060710494607e-03
1.113580182276626600e-03
1.116794604025400173e-03
1.120249357378306880e-03
1.122340487069681562e-03
1.123001443793338007e-03
1.123504345193863940e-03
1.124549627859828876e-03
1.125233851256642655e-03
1.124350211862154211e-03
1.122200700649717562e-03
1.120374094654022186e-03
1.119768384639883681e-03
1.119523545664658512e-03
1.118377907706201478e-03
1.116594039143398642e-03
1.115687451899108600e-03
1.116271914566705414e-03
1.117045213999070304e-03
1.116403466432784077e-03
1.114512913907840259e-03
1.113011540566609392e-03
1.112794473109281635e-03
1.112997055163038969e-03
1.112526170072063170e-03
1.111861921825472088e-03
1.112547732304859736e-03
1.114995672961368407e-03
1.117589893511919830e-03
1.118397453837140969e-03
1.117226505830903232e-03
1.115361946129157485e-03
1.113563531984465300e-03
1.111213497564708186e-03
1.107718526255263266e-03
1.103976323169757016e-03
1.101669792164663292e-03
1.101205708999984873e-03
1.101075076559408523e-03
1.099705983142969679e-03
1.097424371945699556e-03
1.095860040544475696e-03
1.095684220842714105e-03
1.095798186184774453e-03
1.094966028657092059e-03
1.093515522495844315e-03
1.092778983132160946e-03
1.093112033860733695e-03
1.093270923555092998e-03
1.092062902898337674e-03
1.089980893665535612e-03
1.088516101691815651e-03
1.087961089075727833e-03
1.086735421682887308e-03
1.083485652714080835e-03
1.079178602336587590e-03
1.076151516089428588e-03
1.075329110192191828e-03
1.075326108899076101e-03
1.074577091045574246e-03
1.073549265727203293e-03
1.074124591808286273e-03
1.077145590520799849e-03
1.081384349628399921e-03
1.085194375176311505e-03
1.088556771467918700e-03
1.092707807856257204e-03
1.097893835294728960e-03
1.102470048674121300e-03
1.104760061509045240e-03
1.105162604019052901e-03
1.105507669621746437e-03
1.106564354344306920e-03
1.107242241415460791e-03
1.106632226828689483e-03
1.106272981600993572e-03
1.109954356757167446e-03
1.121399324907237103e-03
1.142203641448933955e-03
1.171528373977549905e-03
1.206618037450655654e-03
1.242084631512556077e-03
1.268123621403330391e-03
1.271149479611876970e-03
1.239020638217944170e-03
1.167551463549262739e-03
1.063317905220672113e-03
9.417074791903490370e-04
8.224655784807475504e-04
7.249280509168121167e-04
6.640334312655053663e-04
6.473746552988166600e-04
6.734999230753974065e-04
7.327043699640458730e-04
8.110039219292513929e-04
8.948773011821148154e-04
9.734883241986553356e-04
1.038474568508777982e-03
1.084141266649839633e-03
1.109198908353064249e-03
1.117635184167448505e-03
1.116348643666096414e-03
1.111090708607387952e-03
1.104547559357788597e-03
1.097846982657373202e-03
1.092714090832731366e-03
1.091150553488630295e-03
1.093265225652353956e-03
1.096762361122576111e-03
1.099382207500761025e-03
1.101140783855932004e-03
1.103394261530247274e-03
1.106258133364284831e-03
1.107998073390489228e-03
1.107269889961711665e-03
1.105192666494930710e-03
1.104275729242400455e-03
1.105490645951805054e-03
1.107351460614163039e-03
1.108134146689117435e-03
1.108141770380721442e-03
1.108993089491156631e-03
1.111075914204026713e-03
1.112773941165378548e-03
1.112553611273581081e-03
1.111023486622518368e-03
1.110261824173354971e-03
1.111416183824757552e-03
1.113689324437777597e-03
1.115945296259637613e-03
1.118550006148553511e-03
1.122687690228278646e-03
1.128130089855353818e-03
1.132851173282161880e-03
1.135367992894203461e-03
1.136696649455314588e-03
1.139123662614622374e-03
1.143342294262705231e-03
1.147725277394594538e-03
1.150577962898072107e-03
1.152311609952052021e-03
1.154756743475256675e-03
1.158625258631599143e-03
1.162493337869177201e-03
1.164629548634556113e-03
1.165075297159214995e-03
1.165105127475507627e-03
1.165012071641569622e-03
1.163469761919942161e-03
1.159437941161437988e-03
1.153904049141632904e-03
1.148800137204771367e-03
1.144462564167040945e-03
1.139224606263145468e-03
1.131745908884989162e-03
1.122915044686470824e-03
1.114846407713129166e-03
1.108344407926292394e-03
1.102237475530113819e-03
1.095474771392914316e-03
1.089012152208360161e-03
1.084803636796038712e-03
1.083109948248565891e-03
1.081690814717409591e-03
1.078189739977541712e-03
1.072678396136659586e-03
1.067143888931374905e-03
1.062859473959918170e-03
1.059069032082275361e-03
1.054548848698345529e-03
1.049799338961981444e-03
1.046717775948169610e-03
1.046169438370726660e-03
1.046867451758483423e-03
1.047133861960832793e-03
1.047046655230694616e-03
1.047884991219460039e-03
1.049687204176101910e-03
1.050585600452732821e-03
1.049031170888662778e-03
1.045809296204748638e-03
1.043133194505573881e-03
1.042155515175435853e-03
1.042210455062102595e-03
1.042524085048309292e-03
1.043643651758667567e-03
1.046561019482728037e-03
1.051000752856301457e-03
1.055454252597689451e-03
1.059181874835852600e-03
1.063565655026942232e-03
1.070665030635864446e-03
1.080403407201840785e-03
1.089864799647957509e-03
1.095762608475905420e-03
1.097165007738332533e-03
1.095419222563352550e-03
1.091951143737449103e-03
1.087109330314731679e-03
1.081350680352204715e-03
1.076452530946367695e-03
1.074395161063801309e-03
1.075173762206872718e-03
1.076597359727407902e-03
1.076555244604353572e-03
1.074995177448989777e-03
1.073282112944163843e-03
1.071888312339924548e-03
1.069554159711598451e-03
1.065283405582475576e-03
1.060407465302087848e-03
1.057491551343265777e-03
1.057336306008433086e-03
1.058142763956459922e-03
1.057897885681909457e-03
1.056636324065017996e-03
1.055699944977903874e-03
1.055433867563238849e-03
1.054730898547244890e-03
1.052971998277873762e-03
1.051404283041863742e-03
1.051826719375236309e-03
1.054198402786811180e-03
1.056257239698450657e-03
1.055744236935780411e-03
1.052494498207520984e-03
1.047768020542808477e-03
1.041897322917598656e-03
1.033683657433236191e-03
1.022501429782998131e-03
1.010109639429227369e-03
9.994284178638773025e-04
9.916980047714283198e-04
9.857133294677990036e-04
9.800432974130517550e-04
9.750780551214478700e-04
9.721418423655793506e-04
9.710706272036008892e-04
9.697762481339404711e-04
9.665766705941184530e-04
9.621501992215348263e-04
9.584347723926810430e-04
9.559256978863252740e-04
9.529856652096543390e-04
9.481798655715826737e-04
9.424395810626252012e-04
9.379836083098530997e-04
9.354420797687499614e-04
9.330059680973437066e-04
9.285785561424774468e-04
9.219607242274305108e-04
9.143923012360911755e-04
9.065051122178213478e-04
8.976668319135205822e-04
8.876068089828147503e-04
8.779311090051691293e-04
8.711282513028017951e-04
8.681297237288274462e-04
8.675907759286309237e-04
8.678249951804443496e-04
8.687392707472267129e-04
8.711987936097990819e-04
8.748448451631385316e-04
8.775838815294746643e-04
8.776882802139161473e-04
8.756412245605057435e-04
8.732479080664814477e-04
8.713234946215891487e-04
8.689899443397134391e-04
8.655011641918720867e-04
8.620327691033755936e-04
8.607465332208986573e-04
8.622918256372171788e-04
8.651584084683397588e-04
8.678321168512016966e-04
8.708532273001589382e-04
8.759414418154725344e-04
8.833477171853352464e-04
8.909672217873816418e-04
8.964532484037669204e-04
8.995930242252842858e-04
9.018370578173655382e-04
9.038576704807531554e-04
9.047029974216233344e-04
9.035729191320244526e-04
9.013952767910594042e-04
8.999099935580929556e-04
8.995780616917130974e-04
8.992113074818025185e-04
8.981379738784237834e-04
8.984768643703614681e-04
9.046578271256150786e-04
9.204243338778474431e-04
9.463437926291055685e-04
9.798202249046965989e-04
1.016063466527962304e-03
1.047440619769778210e-03
1.062134708037349188e-03
1.046039895853633807e-03
9.889396360143096719e-04
8.908697932628114203e-04
7.640199456574175031e-04
6.291399459223143489e-04
5.091972140684741799e-04
4.239920524910835171e-04
3.867312085281016543e-04
4.012896385021348308e-04
4.606263993991593117e-04
5.488910070670896708e-04
6.473195056428260449e-04
7.399221698644132877e-04
8.157066804327531371e-04
8.688218772201984803e-04
8.990089284444369687e-04
9.112937950157999146e-04
9.131452260322930068e-04
9.106173638339530498e-04
9.067681470848649745e-04
9.032246405118432141e-04
9.019688360860732669e-04
9.045843657767172353e-04
9.103152463340692191e-04
9.162467502259036538e-04
9.200524725926737413e-04
9.220510294876308821e-04
9.240161385372236283e-04
9.264785594978576597e-04
9.281437399197016609e-04
9.280676918401723667e-04
9.273713016450013712e-04
9.278963945154677061e-04
9.296820170898727372e-04
9.308895577837675902e-04
9.303298831951064890e-04
9.291690446391544407e-04
9.295249232019655444e-04
9.318411720233777317e-04
9.345352149861884750e-04
9.363067853872960276e-04
9.378941004443822928e-04
9.408821928349935058e-04
9.452777022855955724e-04
9.493117710126406598e-04
9.518277328693631025e-04
9.539528421102620465e-04
9.577565503567044740e-04
9.636840853924229754e-04
9.701033695932021177e-04
9.754930739139233958e-04
9.802963163914662700e-04
9.859437186280867009e-04
9.924716872987914256e-04
9.981508707249354614e-04
1.001642729549205840e-03
1.003582970411975861e-03
1.005514454744092312e-03
1.007794363619161264e-03
1.009326977131362428e-03
1.009436921142060689e-03
1.009127697524843511e-03
1.009779702731338109e-03
1.011015429918106197e-03
1.010764660504602551e-03
1.007625611760661717e-03
1.002419013265982983e-03
9.969547301686889490e-04
9.917045062154499196e-04
9.854544344417186848e-04
9.774251315491722450e-04
9.688246466415912587e-04
9.615259874983783910e-04
9.557287787959908940e-04
9.498659647205235593e-04
9.428745910008580738e-04
9.356866573222921094e-04
9.298798245648003287e-04
9.253930188942993684e-04
9.204883424574034859e-04
9.140448097434973303e-04
9.070365479076450974e-04
9.011888176499303254e-04
8.967553887913877041e-04
8.924785957319804992e-04
8.877282378609450877e-04
8.837494123260715862e-04
8.820777486729405826e-04
8.822375281053776962e-04
8.820002563314127729e-04
8.799936597290073477e-04
8.772433320794954022e-04
8.756238280952329716e-04
8.753543931595376493e-04
8.749886849687072343e-04
8.737612184936586297e-04
8.727797213967310478e-04
8.734003203157563204e-04
8.751725712705441234e-04
8.762166691451331573e-04
8.755416049631525692e-04
8.742262295328341202e-04
8.739218593141478844e-04
8.746562327110107490e-04
8.748478179345178535e-04
8.735166037801255770e-04
8.716404845077332193e-04
8.708025323183984012e-04
8.710239003123577180e-04
8.707983111876151658e-04
8.693751642622070570e-04
8.680020149128839582e-04
8.681563538058769845e-04
8.692829118354603035e-04
8.693383520885103553e-04
8.674703466122235833e-04
8.651694222534001564e-04
8.642644464983458962e-04
8.645407848846436202e-04
8.642705631142118261e-04
8.627709508567712581e-04
8.613602151969669421e-04
8.614262791468858252e-04
8.623432661761054694e-04
8.621913972592315858e-04
8.603231045837264135e-04
8.582382245360933772e-04
8.575510052968128094e-04
8.577842604359033106e-04
8.569412690413836338e-04
8.540726826398150002e-04
8.504917817898673127e-04
8.481991521676850295e-04
8.477022828882091509e-04
8.480502444377781106e-04
8.487464656422342383e-04
8.505412666085060110e-04
8.538556580176352153e-04
8.571774231796899486e-04
8.580224843223787029e-04
8.555505944957188811e-04
8.514894622597609384e-04
8.482437513513757998e-04
8.465983982619757538e-04
8.457013805400791836e-04
8.450318838181536396e-04
8.453956552046417144e-04
8.475165879728250315e-04
8.503717794490187228e-04
8.518415960275273462e-04
8.510608277703019019e-04
8.493236111500398903e-04
8.483367805141818138e-04
8.482089870628427373e-04
8.476959242854505659e-04
8.462340754598176099e-04
8.449061181282179053e-04
8.448370891700676807e-04
8.452987849564313127e-04
8.444358261341225252e-04
8.417185044836421239e-04
8.386713238286094699e-04
8.368920441038645453e-04
8.360926570207584136e-04
8.347602952744505441e-04
8.324911344617808842e-04
8.307993948160027117e-04
8.312512506421671507e-04
8.334170825004669951e-04
8.353838496760162668e-04
8.360641296931918109e-04
8.361917996360439210e-04
8.368313253080821327e-04
8.375945457473896530e-04
8.371281551698882490e-04
8.352168933301292245e-04
8.333959628585151536e-04
8.330148383619719434e-04
8.333182129720919946e-04
8.322355215667267278e-04
8.289763694547478681e-04
8.249603859708972949e-04
8.218951360633157833e-04
8.196887915059762695e-04
8.168892866095365645e-04
8.128976023941427397e-04
8.088329770714770004e-04
8.057960555919291799e-04
8.031121585718851465e-04
7.992594577853917061e-04
7.941698815513234273e-04
7.896221998755059267e-04
7.872674756438328286e-04
7.869499591177352149e-04
7.874783196603808320e-04
7.886815479506468314e-04
7.918172767384037839e-04
7.977290231607917035e-04
8.051563504131573805e-04
8.115838203235957796e-04
8.158025307641713492e-04
8.187767725335897339e-04
8.217121073422300982e-04
8.241756312625015974e-04
8.248511991094514004e-04
8.237298005011028370e-04
8.226041395413277117e-04
8.231636514071590275e-04
8.254225269449903812e-04
8.291027403811816743e-04
8.364043975216805139e-04
8.518494683418127147e-04
8.783010646553515537e-04
9.132521263158392211e-04
9.489392975086739356e-04
9.749134909524825475e-04
9.799959671983298880e-04
9.537507703617935156e-04
8.894280250844274240e-04
7.886395779480421218e-04
6.647656218695897814e-04
5.403724187771836215e-04
4.384970263903998884e-04
3.743707793648061530e-04
3.533467219033157593e-04
3.737033189817656124e-04
4.291263887883754063e-04
5.088503792505991684e-04
5.981757925535359814e-04
6.820213993447582111e-04
7.498436204546113371e-04
7.977835313881248428e-04
8.267757289597786868e-04
8.395734002822262355e-04
8.398677194799359161e-04
8.329699527846059050e-04
8.250771169874945767e-04
8.205233351430838351e-04
8.198944255932296516e-04
8.213441703685478304e-04
8.235808175249138396e-04
8.269386579805476948e-04
8.318117792770007932e-04
8.373782861244873348e-04
8.424343997652163508e-04
8.465431066460770088e-04
8.495826147652775148e-04
8.507992149542708106e-04
8.494094595700240431e-04
8.461510591939057011e-04
8.432367489475198078e-04
8.422540538974713012e-04
8.425840153781164864e-04
8.424588866310523533e-04
8.413113838378577340e-04
8.403334181324436736e-04
8.407082404215426071e-04
8.420156947833831642e-04
8.429572672982208565e-04
8.434163362886640605e-04
8.448881856131971405e-04
8.485644956012994766e-04
8.536668490701052351e-04
8.582788210021673712e-04
8.615871108776265545e-04
8.646038253693142652e-04
8.685464131816940337e-04
8.731133565357372542e-04
8.770125239030236502e-04
8.800016692861690679e-04
8.833786625539741255e-04
8.880584764815122869e-04
8.929586332505917321e-04
8.960599429043039459e-04
8.967805289660938164e-04
8.964679976914163200e-04
8.964516006810864003e-04
8.963172012674184121e-04
8.946391133737930171e-04
8.911066172889522833e-04
8.871094171853154478e-04
8.839579313664866402e-04
8.811559490864140625e-04
8.771508019991180929e-04
8.715311522323469957e-04
8.655399677317322273e-04
8.602394572773428916e-04
8.549548122398191322e-04
8.482068289677830927e-04
8.398785932128931524e-04
8.315649786867488529e-04
8.245883581737149847e-04
8.183666675886128129e-04
8.113885922727398763e-04
8.034965386425014849e-04
7.962376880380705145e-04
7.908175247226090871e-04
7.865627103809893659e-04
7.819835096636772393e-04
7.769153934982289938e-04
7.727057558279205917e-04
7.702428947715071880e-04
7.686356636922527831e-04
7.663370703034726433e-04
7.632164041438148144e-04
7.607422821143925177e-04
7.599186949756000153e-04
7.597645085838575490e-04
7.585118629866782281e-04
7.559825492231607522e-04
7.538769125390766416e-04
7.536175653654826655e-04
7.546761862679658098e-04
7.554783666295599017e-04
7.555015147709136149e-04
7.556162901376045583e-04
7.563342821509683872e-04
7.566650516398863843e-04
7.553226075019359121e-04
7.526576148720014051e-04
7.506051142699581881e-04
7.505301741882525928e-04
7.516490465275493501e-04
7.520988324696514619e-04
7.512874736024381965e-04
7.503971746682974904e-04
7.504886967597314013e-04
7.508892511633357076e-04
7.500946955183481878e-04
7.479315540150069039e-04
7.458773685606037360e-04
7.450313514497094525e-04
7.446099877489393074e-04
7.431202679152469539e-04
7.405184357477746825e-04
7.382728062526026534e-04
7.373279363704054448e-04
7.368122736722936949e-04
7.351624035073409634e-04
7.321558021217654515e-04
7.292063896751580648e-04
7.275162601332373167e-04
7.265146776684591528e-04
7.247497689649375248e-04
7.220375622171821238e-04
7.198283153572115293e-04
7.192615312329225710e-04
7.195776836645148642e-04
7.190856105828145103e-04
7.173985442466804426e-04
7.158548708700377934e-04
7.155847552263368836e-04
7.159412408383037220e-04
7.154923559308822879e-04
7.141064455867645851e-04
7.130726882149015502e-04
7.131117440924437988e-04
7.131269546268900316e-04
7.115708236016161795e-04
7.086917591586014420e-04
7.064995598391324901e-04
7.063933837955654622e-04
7.076230313516922903e-04
7.084777791694517237e-04
7.083998319815731177e-04
7.082573214160890621e-04
7.086535440411527919e-04
7.086589362040171189e-04
7.068270344864957316e-04
7.032641517639662970e-04
6.998374393152193224e-04
6.980789950412982520e-04
6.974996554283112047e-04
6.965227633530411341e-04
6.947391890108229337e-04
6.933772114499557561e-04
6.934253105077672940e-04
6.940679856531769502e-04
6.936418006103725348e-04
6.918400359099002601e-04
6.900975743815083692e-04
6.896285029653613811e-04
6.898406241598549265e-04
6.893650600165040793e-04
6.882106155130182385e-04
6.877832298111124934e-04
6.886773171214324732e-04
6.894564123226906054e-04
6.882324333214690859e-04
6.849649168866689484e-04
6.813428618535180602e-04
6.783596531161734632e-04
6.749138254912427116e-04
6.693741681195303737e-04
6.619090068047157752e-04
6.545161744551196816e-04
6.489181562275622012e-04
6.450524287490101618e-04
6.419523247983630054e-04
6.396478285691339005e-04
6.392992266523605822e-04
6.413206022061348046e-04
6.443065408012105429e-04
6.465674293198168032e-04
6.482372613738964515e-04
6.509710419101402603e-04
6.555434325134383350e-04
6.605141549703447829e-04
6.638372646500329205e-04
6.652880708872086369e-04
6.664105573195303533e-04
6.682388939537927536e-04
6.699597403810352621e-04
6.701822881177919551e-04
6.690217229070131175e-04
6.681456552060813193e-04
6.687654045015521383e-04
6.706717012734705712e-04
6.741573881559193970e-04
6.822695614591434967e-04
6.995802930821043691e-04
7.278870294079682265e-04
7.632984405469821773e-04
7.972528462097188632e-04
8.191713017690470822e-04
8.180744341121309144e-04
7.841147479226296801e-04
7.120327848564605598e-04
6.058833139010664755e-04
4.812295483932439114e-04
3.610064165708661054e-04
2.666497288743453070e-04
2.112464243099290468e-04
1.988586158631828788e-04
2.272127838156333759e-04
2.890527245071606828e-04
3.719708704053103316e-04
4.600670038613052489e-04
5.386815790245770390e-04
5.991088001648494157e-04
6.395009856659623557e-04
6.620458029792730204e-04
6.700778242353355165e-04
6.676501903469377486e-04
6.601143422793737375e-04
6.530574130328977789e-04
6.497669183806860328e-04
6.500524857122189559e-04
6.520108304137335045e-04
6.546147795410582008e-04
6.580548591351587789e-04
6.619884994211888305e-04
6.646835220443874336e-04
6.645884761835402178e-04
6.622830399374511883e-04
6.600467602578655212e-04
6.593260963383248052e-04
6.592817323162001447e-04
6.582755559167736015e-04
6.561611002824987169e-04
6.544583838726628381e-04
6.544674113385012858e-04
6.557834105524748894e-04
6.571102841753354191e-04
6.582017179759375690e-04
6.600872652150459536e-04
6.632380071197830837e-04
6.664255847014326738e-04
6.680810680666133834e-04
6.683269176085057921e-04
6.688458875103413118e-04
6.707029428567496147e-04
6.730800139842230134e-04
6.746691966273892036e-04
6.756903452803642539e-04
6.777667245338294191e-04
6.819119754449104974e-04
6.872269050336264748e-04
6.920299113628384244e-04
6.958789952263210940e-04
6.996819244926780071e-04
7.039121752991569234e-04
7.075505388800725501e-04
7.093225388190349317e-04
7.095035699632682054e-04
7.095753126205634918e-04
7.101353555695096844e-04
7.100290152889065761e-04
7.079821973531149823e-04
7.045616217478892088e-04
7.017098795082151851e-04
7.002633318323933913e-04
6.987131240299153563e-04
6.949759225256508339e-04
6.888378813432854400e-04
6.818695968041040608e-04
6.751143419664811613e-04
6.677760229515166887e-04
6.586792862015901102e-04
6.483626854580688695e-04
6.388217420500772294e-04
6.312638220362645422e-04
6.248848037839784247e-04
6.182503970757393524e-04
6.113283927344627475e-04
6.053741882267466836e-04
6.009224058374576516e-04
5.967796827170680730e-04
5.915705473942758788e-04
5.855546809046710370e-04
5.798781754461230500e-04
5.747825406815146700e-04
5.699489150235713701e-04
5.660711163869464350e-04
5.646102692699053131e-04
5.657504604365676260e-04
5.675164155684493412e-04
5.676298239770651228e-04
5.658580155428618403e-04
5.638453175607409341e-04
5.628191244049148565e-04
5.622382525623185589e-04
5.610261145046085453e-04
5.594799806961699845e-04
5.590407246905091136e-04
5.601568407403608157e-04
5.612601508053380013e-04
5.604840717887693557e-04
5.579141952558284989e-04
5.553750445962828174e-04
5.540984964056620658e-04
5.533444749075991332e-04
5.517940502999539630e-04
5.496923603075025378e-04
5.485651021944005015e-04
5.489589416588010629e-04
5.494909915693098681e-04
5.485839878861385093e-04
5.465956937048462591e-04
5.454141237924307667e-04
5.459994208423056940e-04
5.471923714656531067e-04
5.473312250203112711e-04
5.463645399023303378e-04
5.455431362650878680e-04
5.452416171741465527e-04
5.441072991845847130e-04
5.408145399132384965e-04
5.360489642951043934e-04
5.319955166025235136e-04
5.299023239473879673e-04
5.288749685715442902e-04
5.274261672276250867e-04
5.255887795637690166e-04
5.246765685864016645e-04
5.250355375832083940e-04
5.250593647487346088e-04
5.230774091984718120e-04
5.195078101555989638e-04
5.163221618187380365e-04
5.146788966847238352e-04
5.137994067676986305e-04
5.124379780019890996e-04
5.108782292186658412e-04
5.105236748054842004e-04
5.116102461122972248e-04
5.123971319060767124e-04
5.110869389796168305e-04
5.079699052147212566e-04
5.050055841504080519e-04
5.034035860383931924e-04
5.024182650610323946e-04
5.008930360172886287e-04
4.991931737544568837e-04
4.987275987173713865e-04
4.998017272223237223e-04
5.008750197199866210e-04
5.003420741116208943e-04
4.984217138529617452e-04
4.966671570455352203e-04
4.958811394492782876e-04
4.952070787098264209e-04
4.936130793804668860e-04
4.916609556257855269e-04
4.908907600385805856e-04
4.915266706163947145e-04
4.917371877961411713e-04
4.897540732708713720e-04
4.861306520636245404e-04
4.830199882737520097e-04
4.814568917197831980e-04
4.803159280980292406e-04
4.782315841332000035e-04
4.757230092832713617e-04
4.745385784864492159e-04
4.751517913589252125e-04
4.759295143970239893e-04
4.751429166833097298e-04
4.730666068572301716e-04
4.713566366948616329e-04
4.705956444411010992e-04
4.693653354692260910e-04
4.661409763984064960e-04
4.613129206267726416e-04
4.565823001161328190e-04
4.527545977505768827e-04
4.489134819440840905e-04
4.439694988619247553e-04
4.384220497436192151e-04
4.339348963406459351e-04
4.313148337957360386e-04
4.295745680888843690e-04
4.274130447603725685e-04
4.251937096708658889e-04
4.246129000245913603e-04
4.264620366110433093e-04
4.295948807396333989e-04
4.325003971094901981e-04
4.352708358840296074e-04
4.391438028138163678e-04
4.441877604807072913e-04
4.485334277423887466e-04
4.504961680281082369e-04
4.506921076064540621e-04
4.511648476485712804e-04
4.527030289280122672e-04
4.539399197397661102e-04
4.533872085912432105e-04
4.516416796811906914e-04
4.509324803000289410e-04
4.530668550599689171e-04
4.589990915386856765e-04
4.704689898016177116e-04
4.905032534096028613e-04
5.206774047632298664e-04
5.575464333229678037e-04
5.919150818749598694e-04
6.113905178413271777e-04
6.039532761248844143e-04
5.606853290957045750e-04
4.780136710685574993e-04
3.608339932763596734e-04
2.249657324259299492e-04
9.466210367800625318e-05
-5.440622045642428198e-06
-5.879608201451617467e-05
-6.061886878212677330e-05
-1.626013048001441735e-05
6.239938008596827021e-05
1.597550763363809329e-04
2.587222477161293683e-04
3.439520252812410927e-04
4.058047672284302619e-04
4.425221059149915558e-04
4.585999249723139303e-04
4.607192461438267342e-04
4.547714206981738616e-04
4.457022061634165482e-04
4.381730059347561392e-04
4.355873207775872477e-04
4.382524079361657817e-04
4.434433763094441797e-04
4.481084314848421727e-04
4.513370522611818243e-04
4.539063303590343051e-04
4.561528947017077736e-04
4.571959886412907707e-04
4.563686609074091684e-04
4.546584622621923743e-04
4.538155918005376023e-04
4.541541684275690540e-04
4.541721549287067194e-04
4.526577479976667080e-04
4.504545600504060421e-04
4.495197207460566993e-04
4.505369151762410752e-04
4.522274752189444692e-04
4.532754338990928702e-04
4.542125307684366964e-04
4.565826100666293486e-04
4.605275008017583704e-04
4.642307277670328818e-04
4.661033183287400963e-04
4.668057374072419720e-04
4.684188287467498961e-04
4.718571910806772739e-04
4.759681518262586582e-04
4.794742603755928014e-04
4.828921516959484568e-04
4.877301331888885959e-04
4.942631820307521193e-04
5.009939173238662060e-04
5.064681988142899450e-04
5.109104608576804131e-04
5.153918515206555541e-04
5.197378782860290159e-04
5.222490287624024195e-04
5.217758859371292518e-04
5.193028561088951700e-04
5.168920019987181640e-04
5.154146103999868037e-04
5.139537885787417385e-04
5.114737278235702116e-04
5.083629087982835309e-04
5.057679036720870956e-04
5.036622339628592758e-04
5.003438331023764632e-04
4.943301338484764294e-04
4.862217071144462124e-04
4.778915299575674496e-04
4.701521675650493950e-04
4.621977576761369662e-04
4.534041110611826278e-04
4.447202989726552918e-04
4.376325683654154149e-04
4.322108583221859332e-04
4.271664514147887779e-04
4.217313400407520169e-04
4.161740891722955820e-04
4.102893268868255386e-04
4.028762114314594542e-04
3.935353309312025045e-04
3.840862556941502691e-04
3.771773129712895881e-04
3.736458713975299574e-04
3.719920731030472417e-04
3.705270724358937073e-04
3.692363296270112331e-04
3.690634177041053946e-04
3.699247370492152708e-04
3.703171213112220255e-04
3.691686057066036479e-04
3.673333706876823874e-04
3.664390614717963281e-04
3.666441311145495646e-04
3.664618356537854816e-04
3.648359425114975989e-04
3.625953438593365196e-04
3.613943637378684549e-04
3.615810756686260209e-04
3.617975942058991850e-04
3.608625719507657626e-04
3.593460964629591734e-04
3.587264750673481656e-04
3.593929880718581553e-04
3.601348064699879769e-04
3.597969448206904440e-04
3.588913977769633487e-04
3.588101677158570869e-04
3.596668107609706975e-04
3.599052525549099185e-04
3.583226458597914862e-04
3.556361898802803305e-04
3.534388055155358106e-04
3.521308038621492951e-04
3.506654902965667515e-04
3.483817739574359383e-04
3.463167897560469593e-04
3.459493168897336554e-04
3.469878773892670783e-04
3.474464784638627208e-04
3.460681890323668479e-04
3.437819348220040746e-04
3.422983888807477480e-04
3.417993619830354498e-04
3.407339973192558447e-04
3.379493726220479492e-04
3.342877241121043229e-04
3.315620370009172307e-04
3.303839554299481136e-04
3.297323422494540445e-04
3.286643961472544275e-04
3.276467996660543621e-04
3.277147951905405305e-04
3.287427648157545965e-04
3.293461927645683057e-04
3.287423756131112838e-04
3.279331530556278294e-04
3.283686314728990877e-04
3.298268936330780413e-04
3.304321848705979122e-04
3.289999870276416518e-04
3.266144393924015057e-04
3.252284290247154362e-04
3.252172826334344923e-04
3.251917854319074036e-04
3.242106355629621912e-04
3.232511125954725360e-04
3.238277993962078677e-04
3.256704262026135295e-04
3.267437954868459356e-04
3.256273883299970018e-04
3.231048993892781155e-04
3.210008770555809895e-04
3.198891357031577085e-04
3.186939012669394358e-04
3.165415251759276928e-04
3.141247529941173524e-04
3.128143690282383232e-04
3.128883685378270902e-04
3.132539907537787590e-04
3.130599345535719797e-04
3.129225192838023563e-04
3.139240303259261083e-04
3.157992238280042164e-04
3.169334082007735126e-04
3.163456564593768150e-04
3.150321138862812939e-04
3.146493301823873067e-04
3.151983611895304194e-04
3.149961889566309996e-04
3.130235721309509609e-04
3.103873616442926592e-04
3.090218290798603558e-04
3.093963730430779042e-04
3.101095523456722197e-04
3.098772323888867946e-04
3.092072241611408035e-04
3.093574639276552027e-04
3.101219755370809741e-04
3.097948538653647076e-04
3.074562461851682309e-04
3.043188339346802993e-04
3.022638791453951439e-04
3.015623627760084086e-04
3.007608860235434474e-04
2.987437781081839195e-04
2.960601006707437219e-04
2.937422488535018725e-04
2.914130871578044890e-04
2.875283628736004194e-04
2.816110670901599499e-04
2.753365399386247837e-04
2.708079939220112337e-04
2.682504768725076159e-04
2.660693426657673058e-04
2.630773491377169627e-04
2.599840800598797832e-04
2.583749131687471242e-04
2.587196173079194363e-04
2.601126457306240881e-04
2.620220293539812610e-04
2.653271516373866099e-04
2.708481530033498099e-04
2.774487497923614084e-04
2.826074734222869277e-04
2.849595298221358104e-04
2.856186097707259525e-04
2.865770691476636056e-04
2.882407407559854054e-04
2.892306988621883555e-04
2.885118771757316032e-04
2.869913472417007293e-04
2.868321531633205622e-04
2.898830707728410408e-04
2.976099835161646174e-04
3.123361254458838503e-04
3.367727263535448502e-04
3.708466615819279466e-04
4.089711965876538687e-04
4.404360352910431414e-04
4.524368856798974942e-04
4.338692471833461412e-04
3.782368414674907946e-04
2.857363273616558797e-04
1.655959876919096399e-04
3.675229666555695097e-05
-7.681223969562830456e-05
-1.546682264008555864e-04
-1.863934780461517929e-04
-1.723334317147430473e-04
-1.202938065594134909e-04
-4.198328879629985690e-05
4.879275848069158711e-05
1.374594885457784709e-04
2.114647023856571981e-04
2.638831609456202421e-04
2.947713421297307830e-04
3.086904862315024089e-04
3.108600191129855424e-04
3.055712507505024258e-04
2.970847984060293631e-04
2.899589175664221935e-04
2.872318524899582248e-04
2.886525626404177363e-04
2.915899480443731790e-04
2.939178351734608101e-04
2.956902167418178355e-04
2.980165311802652605e-04
3.009405181907327570e-04
3.031582493207724558e-04
3.038776902942168386e-04
3.040589974475763112e-04
3.051313471761700718e-04
3.069807265390135133e-04
3.081337294410772961e-04
3.079229199239441736e-04
3.074671169150666196e-04
3.081040529437435900e-04
3.095576280383829817e-04
3.103045222448324106e-04
3.096985113244057918e-04
3.090702873256762659e-04
3.101730757764451364e-04
3.129833480023971578e-04
3.159221358692464112e-04
3.181336570346986322e-04
3.205704836622221996e-04
3.244867980409132696e-04
3.295353970612405984e-04
3.341092669640361324e-04
3.374690731166896411e-04
3.406925447288282577e-04
3.450881007525988232e-04
3.501883875705180801e-04
3.541102382642565059e-04
3.559289538772283826e-04
3.568486262642989876e-04
3.585834784460750681e-04
3.611614451461208448e-04
3.630596572016636897e-04
3.633709033857869248e-04
3.629268941893040506e-04
3.629069094279237804e-04
3.630109459095947201e-04
3.617676385508544258e-04
3.585122190922669107e-04
3.542766335186284471e-04
3.504224086650270845e-04
3.468780915221777571e-04
3.423465085931020322e-04
3.362327156675932777e-04
3.295750764859632078e-04
3.236085763167369234e-04
3.179711747519173184e-04
3.111143069932248710e-04
3.024423704928736736e-04
2.932735670285252982e-04
2.853525155759171930e-04
2.788987563020713968e-04
2.727376908704391462e-04
2.663193270943377765e-04
2.607073848319365499e-04
2.570455462345678480e-04
2.547439549802088272e-04
2.520578604286225865e-04
2.482834674547829113e-04
2.442596480221084472e-04
2.405673572172730302e-04
2.367866186786402797e-04
2.330218755273203790e-04
2.306468519460272751e-04
2.306574833865063299e-04
2.320432882163823204e-04
2.326495106460175783e-04
2.315296908331544203e-04
2.297761059825636576e-04
2.288313997652781503e-04
2.285653141478755372e-04
2.277067017259445415e-04
2.259636854772501891e-04
2.247368553561679590e-04
2.253579714588112119e-04
2.272212698976457893e-04
2.283681154559011935e-04
2.278725270540771968e-04
2.268322359000661363e-04
2.267170405897006320e-04
2.274325622708293026e-04
2.276065163215428553e-04
2.266303215058473527e-04
2.256082612378901243e-04
2.257256370561856610e-04
2.263246219665393305e-04
2.256088134043793595e-04
2.230847854026542839e-04
2.202890102507347545e-04
2.188120979008247946e-04
2.183481294846784495e-04
2.173225440369948606e-04
2.150862701593105790e-04
2.125065411443378917e-04
2.102803298900643479e-04
2.080303043050309338e-04
2.056504571983089813e-04
2.041721521254784158e-04
2.044180313383751391e-04
2.055152756304024809e-04
2.056517918102007941e-04
2.042995261208176106e-04
2.028905060350470941e-04
2.029517900495431907e-04
2.041648298895622953e-04
2.049261999852896362e-04
2.046161171038651458e-04
2.043318399828462245e-04
2.050380075043828007e-04
2.059048081427985837e-04
2.052640122885668978e-04
2.027925649868520409e-04
1.999255774789391736e-04
1.980411833438170538e-04
1.969016643833062141e-04
1.953679933967140655e-04
1.932744453732354768e-04
1.918006502174894427e-04
1.917850939007698444e-04
1.923160187094328675e-04
1.917185895749375459e-04
1.897336706068160979e-04
1.878621057306529771e-04
1.873696883028485834e-04
1.876440813403695471e-04
1.871191499953221747e-04
1.854873632576379671e-04
1.841162365241847971e-04
1.841247437247817663e-04
1.847898190018402867e-04
1.844922624850733038e-04
1.829267761226781460e-04
1.815012474178415679e-04
1.813910789165265646e-04
1.819263881574362121e-04
1.815256641168166421e-04
1.799015231851326928e-04
1.784621705527856530e-04
1.783716598480779552e-04
1.789439968485344746e-04
1.785825735411250125e-04
1.769894728121501181e-04
1.755680935543800329e-04
1.754827001811288135e-04
1.760094500764645162e-04
1.754105730950609662e-04
1.732125098490318164e-04
1.707335762050174628e-04
1.691297624126750524e-04
1.677345711518822492e-04
1.649535085731961611e-04
1.604539227975240127e-04
1.556953666530303849e-04
1.521134462548624886e-04
1.494007369318749515e-04
1.461666866976364535e-04
1.420187257497586243e-04
1.381550413961969573e-04
1.356728777935786940e-04
1.340057535041028376e-04
1.317580975116783054e-04
1.287977422079736225e-04
1.266306205408812926e-04
1.265950612564154302e-04
1.283829741347052651e-04
1.307823605250847980e-04
1.334774398149872823e-04
1.372968020919406308e-04
1.425457432693711789e-04
1.478262759918663955e-04
1.511732670603744633e-04
1.522347699053957907e-04
1.526347862630932778e-04
1.539449400630955520e-04
1.559194046803011194e-04
1.572185786985044113e-04
1.574250813164719391e-04
1.576701928273036577e-04
1.594899901557263080e-04
1.640142216690097863e-04
1.728492323059333717e-04
1.889716377156559074e-04
2.149861300268008138e-04
2.494843154974897993e-04
2.850770948020146084e-04
3.098696890865333827e-04
3.111078175418284801e-04
2.788887850301616754e-04
2.089176637624172417e-04
1.048471860851246662e-04
-1.990513241274512266e-05
-1.436263526002406685e-04
-2.428927518068530779e-04
-3.008996754008247659e-04
-3.119698306969174431e-04
-2.803206627629603164e-04
-2.159776354931080156e-04
-1.317044711792533405e-04
-4.166180286409667697e-05
4.030067816715823033e-05
1.039227376950291391e-04
1.454739109016730679e-04
1.674836037064503453e-04
1.754067088897197867e-04
1.743451058307625683e-04
1.682882311248100988e-04
1.610781361201801690e-04
1.563609212901582307e-04
1.558524450054809760e-04
1.582790652664328225e-04
1.609811228454850144e-04
1.627429719816272458e-04
1.644668154297892777e-04
1.670455433246507840e-04
1.695629455276029913e-04
1.702950180327176752e-04
1.690391992239760263e-04
1.675075851584683457e-04
1.671717759727230643e-04
1.675163606098306656e-04
1.670995189756494361e-04
1.658406774525261491e-04
1.653505700167516622e-04
1.668665993378982103e-04
1.695866364983341810e-04
1.717141979619978172e-04
1.727481369286211314e-04
1.738527732591546799e-04
1.759766417679598438e-04
1.784290173184972989e-04
1.799079372559669941e-04
1.805411773437074732e-04
1.819261430590570112e-04
1.849796604907272073e-04
1.886346118059774313e-04
1.912711556343641935e-04
1.929661028751917455e-04
1.955152125857891423e-04
2.001653075057774930e-04
2.060160521539338959e-04
2.111472343550579458e-04
2.149269272855680417e-04
2.184272808229841033e-04
2.224482242084310996e-04
2.259876590508491353e-04
2.274211523178348350e-04
2.267033773716579307e-04
2.254381916679295259e-04
2.247645279562841781e-04
2.239804033031720341e-04
2.217807768073200552e-04
2.183661775876692907e-04
2.153873071934857535e-04
2.137068835850764468e-04
2.120313631745006215e-04
2.083562320749943490e-04
2.023738919867965405e-04
1.956360655429392487e-04
1.893043612753524097e-04
1.826337843182458459e-04
1.742707802631277328e-04
1.644846960371058875e-04
1.552094594358708690e-04
1.477974827598836855e-04
1.415170451465670070e-04
1.348929432914886570e-04
1.279583634719475916e-04
1.221718004890550531e-04
1.182231765292882943e-04
1.148768424496551506e-04
1.104824662396761701e-04
1.051877130164918990e-04
1.008502059133611624e-04
9.864957042121235038e-05
9.761414610004530120e-05
9.608281145933212112e-05
9.396121762211308293e-05
9.261094865220856863e-05
9.263267883101238779e-05
9.270099606427601238e-05
9.120298102577713241e-05
8.848419115119914632e-05
8.651049067366108200e-05
8.637297354861458738e-05
8.703601281917912021e-05
8.691029842117258594e-05
8.603365994564891785e-05
8.594128436599442504e-05
8.739259154381690681e-05
8.907838768531454576e-05
8.919923449034661191e-05
8.774154793445980731e-05
8.631059590535509552e-05
8.582206362676579516e-05
8.524823157017607416e-05
8.319568791575158995e-05
8.012691728011343655e-05
7.802984407539266445e-05
7.790950000067744683e-05
7.846645297111457364e-05
7.770794549588643831e-05
7.538696964852953288e-05
7.309800268954320598e-05
7.197009505553590182e-05
7.117801827841141980e-05
6.932906610178038052e-05
6.662737946492566571e-05
6.468706727865314744e-05
6.427212997011082923e-05
6.412280234459224841e-05
6.261205503190180868e-05
6.002308411262672607e-05
5.824393165424987268e-05
5.829782867307093264e-05
5.910536339129573036e-05
5.906059366815092802e-05
5.812426105762056325e-05
5.751718773651419902e-05
5.755683651858096951e-05
5.686703663905951249e-05
5.421219760151445820e-05
5.037957637078218330e-05
4.743908920526484271e-05
4.632435650994676636e-05
4.591088212813423681e-05
4.477790065302722370e-05
4.319746588943149850e-05
4.262410261803641380e-05
4.348169328582962307e-05
4.435711303092014978e-05
4.377939151291532433e-05
4.215430930952799920e-05
4.120759002282917876e-05
4.174888010338679645e-05
4.269176852196864035e-05
4.257340506235004953e-05
4.151060005792942551e-05
4.091291566426521293e-05
4.143133938190141042e-05
4.199850601170498996e-05
4.128829709019532848e-05
3.959153861992411455e-05
3.842262405368766483e-05
3.836986826965654287e-05
3.824229574645560906e-05
3.677561615501455557e-05
3.451246792968929713e-05
3.318435901935895983e-05
3.342344436004743725e-05
3.392382643003361269e-05
3.322570043235405224e-05
3.167847820864411494e-05
3.087934459085301753e-05
3.140647621107083834e-05
3.197209009099061467e-05
3.118089630892390083e-05
2.946300200758498805e-05
2.848744913458878692e-05
2.888062585969258409e-05
2.937529924102561755e-05
2.857336150498122245e-05
2.688749528322617686e-05
2.596421183113223601e-05
2.640982624667922692e-05
2.690252423378169076e-05
2.589296531879247288e-05
2.365642643580533316e-05
2.194385661568654979e-05
2.168443184190815744e-05
2.184624186561830682e-05
2.097966908522436256e-05
1.927575383677351557e-05
1.825494218757957483e-05
1.845469345991502998e-05
1.840426628718552088e-05
1.654003637257969945e-05
1.342969306751952245e-05
1.110446667435753109e-05
1.042270337805458824e-05
1.005734379921365516e-05
8.353647800537448032e-06
5.472478139140982828e-06
2.919377672943852895e-06
1.129057240850943507e-06
-1.416597964011979526e-06
-6.147340533065037693e-06
-1.232154252750336998e-05
-1.780676253292979606e-05
-2.151576869763164365e-05
-2.423401877493802387e-05
-2.695816946787912361e-05
-2.916842064662792484e-05
-2.941616041362139604e-05
-2.732527473732173284e-05
-2.416581181213578108e-05
-2.119238138531315176e-05
-1.808439473277979968e-05
-1.370515778866037088e-05
-8.160252534807250786e-06
-3.277844521311433067e-06
-6.937404137559834497e-07
-5.330659118762612336e-09
5.426612070286596784e-07
1.775820223601036994e-06
2.769981465300646456e-06
2.468577467578032293e-06
1.404279847330681345e-06
1.432719422613166517e-06
4.380672828030441040e-06
1.175227735612739601e-05
2.569179559717705555e-05
4.885492984938740553e-05
8.183068908218120224e-05
1.202117150765919114e-04
1.540402390715968654e-04
1.702748207506467977e-04
1.567237272468093197e-04
1.051986900529119787e-04
1.388045172148679070e-05
-1.098039741220318503e-04
-2.476397691124268682e-04
-3.742409410348241424e-04
-4.655093523375790528e-04
-5.067462943100811646e-04
-4.957726031791173400e-04
-4.407172228987823060e-04
-3.556081772501188667e-04
-2.568326238116039589e-04
-1.607601955848563338e-04
-8.103204466975512431e-05
-2.532744369516785627e-05
6.154443345071235368e-06
1.863598538777113582e-05
1.866297599800037380e-05
1.157957915384186026e-05
1.916133125857153244e-06
-5.838578765391224442e-06
-8.406644188815762080e-06
-5.531003849563813878e-06
1.840443907613273367e-07
5.758997293186260500e-06
1.016316345665228393e-05
1.400633980396496928e-05
1.744917273862012187e-05
1.943465193545313580e-05
1.929203872582199199e-05
1.819436216267161961e-05
1.811280857656456886e-05
1.955941998678389655e-05
2.114838127023247567e-05
2.159661204310356396e-05
2.145933639914555848e-05
2.228657386570446434e-05
2.448705396479293212e-05
2.675996181363373468e-05
2.780440398668116439e-05
2.804436231645490545e-05
2.899425832769524092e-05
3.110554514397230290e-05
3.316272099781938237e-05
3.420430986297617925e-05
3.522926595763147158e-05
3.813652520743719470e-05
4.326147671303097984e-05
4.885156611824048546e-05
5.326738605092269175e-05
5.695089397022667747e-05
6.151216257731923192e-05
6.728640212971354019e-05
7.273835582451783398e-05
7.655117010398813883e-05
7.944527265642948016e-05
8.308538240076653730e-05
8.761237554708625449e-05
9.124958296268827467e-05
9.249261273551343194e-05
9.183730106743616742e-05
9.077827316669051126e-05
8.963738007812147805e-05
8.726177911963593076e-05
8.297773538945747446e-05
7.799066719553742876e-05
7.416737204986312282e-05
7.177241692796914891e-05
6.914450729130178046e-05
6.480757061405704057e-05
5.921966178812110597e-05
5.377841391582559088e-05
4.858384231889111525e-05
4.216088216319624103e-05
3.356559642010578876e-05
2.398498533070044696e-05
1.555197139840533167e-05
8.870758213645529508e-06
2.614555705362435305e-06
-4.311519330503954701e-06
-1.144773460889052371e-05
-1.812668058723406698e-05
-2.463669116639394686e-05
-3.109695627019767265e-05
-3.631254137981032625e-05
-3.889769441611025695e-05
-3.925385022599870745e-05
-3.954028184460290415e-05
-4.135864720631888527e-05
-4.407075245806905527e-05
-4.599877358371152244e-05
-4.679921426065515415e-05
-4.776515709746986717e-05
-4.978961828919285489e-05
-5.191605460174786909e-05
-5.255875715083960491e-05
-5.171702065526537348e-05
-5.104244341274429692e-05
-5.159270532752760182e-05
-5.242399417856218394e-05
-5.204237853358709880e-05
-5.064342961952009040e-05
-5.003481212086167799e-05
-5.135427660009448270e-05
-5.359402429382759906e-05
-5.491402892838229610e-05
-5.498575479054149985e-05
-5.521167029302973678e-05
-5.664903889849876722e-05
-5.857043105278220314e-05
-5.959349233206691658e-05
-5.973406831097962917e-05
-6.044476050573400951e-05
-6.251627810136093245e-05
-6.481751875202213225e-05
-6.569933397388880939e-05
-6.520806140258725509e-05
-6.517073788750140035e-05
-6.692924959708455987e-05
-6.967123225565697176e-05
-7.162265124524027065e-05
-7.240343183775952568e-05
-7.330799537559053950e-05
-7.529002097247852049e-05
-7.756122739658005260e-05
-7.869106083558210542e-05
-7.858694246329036215e-05
-7.862431603538157839e-05
-7.975721013831664832e-05
-8.122168253324869684e-05
-8.168254068073040703e-05
-8.124941795707512574e-05
-8.146908494626863570e-05
-8.319416711193570232e-05
-8.526972610775905613e-05
-8.583773163176885252e-05
-8.457314488270501352e-05
-8.302455084356966108e-05
-8.262090292670404550e-05
-8.304144948692842448e-05
-8.315117182110796402e-05
-8.300413252245342644e-05
-8.392415242697607528e-05
-8.648816180869791292e-05
-8.934777155725529777e-05
-9.069010618944763026e-05
-9.043470854814520017e-05
-9.021043237274233755e-05
-9.111630640567516468e-05
-9.232531728562733131e-05
-9.239855653337986519e-05
-9.142488159450399329e-05
-9.101563715720997674e-05
-9.212814285157266232e-05
-9.374489680275856218e-05
-9.425148911921686547e-05
-9.361536753606301657e-05
-9.339293126507653125e-05
-9.458563374369001638e-05
-9.636193858561509359e-05
-9.730036818964612338e-05
-9.731882517965837398e-05
-9.769114428966486213e-05
-9.910782281663364649e-05
-1.004935356837773942e-04
-1.003615645839729263e-04
-9.890179849418150862e-05
-9.789309884815800434e-05
-9.845311518393376222e-05
-9.967161860877468043e-05
-9.997358516455098331e-05
-9.930737158828155083e-05
-9.917441520528762818e-05
-1.005104182374964459e-04
-1.024272203392483527e-04
-1.034669820746426656e-04
-1.035338194918985480e-04
-1.039061575393938203e-04
-1.053313087255342440e-04
-1.069398312973271589e-04
-1.075868211164597208e-04
-1.076989031022101322e-04
-1.089688860335617641e-04
-1.121802964073773481e-04
-1.161356162313315998e-04
-1.191960267790615141e-04
-1.213778316862031289e-04
-1.242846885092645801e-04
-1.289219418282918912e-04
-1.342869807961835898e-04
-1.386859319402122207e-04
-1.418656227919275377e-04
-1.449539630500385531e-04
-1.484197413043034271e-04
-1.510205731558456749e-04
-1.512381086790160270e-04
-1.492103997433229592e-04
-1.464712538826031603e-04
-1.438571709890263794e-04
-1.405292831585632429e-04
-1.354490847768165859e-04
-1.292440910179870769e-04
-1.238996867900303512e-04
-1.205856509237259290e-04
-1.184655074607383592e-04
-1.160878908779120920e-04
-1.134999435150460187e-04
-1.122122273998727923e-04
-1.130215317559777797e-04
-1.146747452507335140e-04
-1.150139884787053195e-04
-1.125289696772664651e-04
-1.058566528034224135e-04
-9.235049820609849552e-05
-6.895750384605810711e-05
-3.568747417865615092e-05
1.692013536827390290e-06
3.231799734197319087e-05
4.355013812838389505e-05
2.461047789307694135e-05
-3.073972316271753914e-05
-1.219716828108301904e-04
-2.395675927882137983e-04
-3.648461074969479171e-04
-4.748290104999483129e-04
-5.506088337033870992e-04
-5.831097664453702275e-04
-5.728284766349394687e-04
-5.262336842265832437e-04
-4.531812841559394300e-04
-3.662459447013677663e-04
-2.796341796128769936e-04
-2.059752765463605784e-04
-1.524184329709266116e-04
-1.193897335429198927e-04
-1.030235270098083986e-04
-9.829295037852895343e-05
-1.001371201112867277e-04
-1.036651144636962433e-04
-1.055329310688405482e-04
-1.054712002320835657e-04
-1.053557990022784669e-04
-1.063219881878223563e-04
-1.073972304023570936e-04
-1.071479898199775914e-04
-1.057935341902082032e-04
-1.048280577128581537e-04
-1.048213486526274442e-04
-1.046070244651828600e-04
-1.029395717491990089e-04
-1.002862912786750028e-04
-9.838022787864354355e-05
-9.806928772542313020e-05
-9.824577978106199252e-05
-9.733075932518342379e-05
-9.537106597032188934e-05
-9.386433065507085016e-05
-9.356300850812157392e-05
-9.341114863170010482e-05
-9.201391134474831181e-05
-8.952146835170590039e-05
-8.738480684097237267e-05
-8.626715607596926625e-05
-8.496810027639676828e-05
-8.187754830593380745e-05
-7.704062075709514849e-05
-7.208309964232674592e-05
-6.806896983961531391e-05
-6.428095093866602848e-05
-5.957526663705886572e-05
-5.425594475098882707e-05
-4.973483826057147929e-05
-4.653348638691069726e-05
-4.386248174747555111e-05
-4.131173963287321574e-05
-3.941677179438530859e-05
-3.814940685385682841e-05
-3.626933409274697186e-05
-3.298283687619689864e-05
-2.957637508284576694e-05
-2.848556588624603404e-05
-3.074821619477544499e-05
-3.511094074292023031e-05
-3.980965272245217627e-05
-4.454288437983006457e-05
-5.018451496564536830e-05
-5.690317305664439364e-05
-6.343308821595418194e-05
-6.858985907543430115e-05
-7.298388907414524000e-05
-7.843835768105606203e-05
-8.563267323394703435e-05
-9.316741168939254858e-05
-9.948597678516318430e-05
-1.050126625722188549e-04
-1.114941957122995162e-04
-1.195142073961326379e-04
-1.276082426360762448e-04
-1.340027421274481807e-04
-1.385996913676399963e-04
-1.426977364583722650e-04
-1.469271550424691361e-04
-1.503031919715128650e-04
-1.517163154994692511e-04
-1.517092242940466405e-04
-1.519801571057268841e-04
-1.533848643700311785e-04
-1.554413986587275349e-04
-1.577033043607630781e-04
-1.602466732691637920e-04
-1.624399408701669408e-04
-1.625471517635723858e-04
-1.595668456479247153e-04
-1.549471730449510955e-04
-1.515169516143906716e-04
-1.507492061474212798e-04
-1.517207444268590683e-04
-1.528232324447087822e-04
-1.538227174167982421e-04
-1.555848275706761107e-04
-1.580753622687885150e-04
-1.597493115656912609e-04
-1.593791644873233590e-04
-1.577762783315041543e-04
-1.569233097070595875e-04
-1.575596358672066944e-04
-1.584458659967585207e-04
-1.582600369441016603e-04
-1.574795571018875449e-04
-1.576856537786452267e-04
-1.592802678053758907e-04
-1.608199729391558697e-04
-1.609224056896588163e-04
-1.601168817542222324e-04
-1.601397409692209908e-04
-1.617060526372049922e-04
-1.638000265045873403e-04
-1.653257373974880351e-04
-1.666982476880138255e-04
-1.690355694667874703e-04
-1.720777632791577324e-04
-1.740231869032588582e-04
-1.737403647665884893e-04
-1.723254335812049844e-04
-1.718475195006245217e-04
-1.729107073036667769e-04
-1.742009985786295134e-04
-1.744747525562289053e-04
-1.742507084936235581e-04
-1.749517679668461615e-04
-1.767498367932821522e-04
-1.781847629769036214e-04
-1.780994133582397033e-04
-1.772672857758005884e-04
-1.774923452951061072e-04
-1.792675754711872942e-04
-1.811292958657062632e-04
-1.816143997519723821e-04
-1.811614272831960169e-04
-1.813990506582815001e-04
-1.828275794495989154e-04
-1.841142110879641445e-04
-1.839692005984793692e-04
-1.829801085168588151e-04
-1.828632567142211840e-04
-1.841383310619614053e-04
-1.854796615869531940e-04
-1.856804709932348895e-04
-1.854000318636609681e-04
-1.862024547502802419e-04
-1.882605625264727666e-04
-1.899564724537144110e-04
-1.900375150504029858e-04
-1.894121135750461999e-04
-1.900319466170402442e-04
-1.923756407022794799e-04
-1.949542764743646735e-04
-1.963039636227677828e-04
-1.966693864880700196e-04
-1.972456368871549118e-04
-1.981472002609979146e-04
-1.980303053064641104e-04
-1.960879505732128166e-04
-1.936602801847389210e-04
-1.929472760098515380e-04
-1.943826170390461567e-04
-1.962735900870410887e-04
-1.971281683079545693e-04
-1.974530101547671045e-04
-1.987338993129197972e-04
-2.011973547876191697e-04
-2.035650670522214209e-04
-2.051198576079732699e-04
-2.071254073101820624e-04
-2.114937352269366131e-04
-2.182632050187014588e-04
-2.252052530263235494e-04
-2.302405194109860553e-04
-2.335610016293306447e-04
-2.366829774790975499e-04
-2.398779451811080708e-04
-2.416088479530902121e-04
-2.406188519007892838e-04
-2.376042996121121220e-04
-2.341500393063294851e-04
-2.305784528184924467e-04
-2.258183453397174601e-04
-2.194252306913870346e-04
-2.129132418676128106e-04
-2.084382578859677606e-04
-2.064609695975658092e-04
-2.054368619368460375e-04
-2.038388262272226208e-04
-2.019102230931226123e-04
-2.009421550479558805e-04
-2.011482044614523864e-04
-2.011587520890829070e-04
-1.995910931809833765e-04
-1.959985691423953382e-04
-1.895322904190828396e-04
-1.773206352949313700e-04
-1.557442080124582561e-04
-1.242671144172308520e-04
-8.789409624222646426e-05
-5.607763382811138675e-05
-4.002037549773781577e-05
-5.060259705549186677e-05
-9.656607981995036930e-05
-1.813129356013239418e-04
-2.984333551711215379e-04
-4.298713566795542371e-04
-5.508152848828578273e-04
-6.391391007865722786e-04
-6.823805523945846189e-04
-6.784802135986292039e-04
-6.329107361246577405e-04
-5.563177083356179910e-04
-4.632368190994752121e-04
-3.698665171932848886e-04
-2.900426112322349774e-04
-2.314958889805769963e-04
-1.954145711906076529e-04
-1.788917593266697707e-04
-1.768911359634265908e-04
-1.829418283380419797e-04
-1.905575087754109598e-04
-1.956046866272037089e-04
-1.974317751260582562e-04
-1.973544407159935469e-04
-1.961309200771882465e-04
-1.933210045356387793e-04
-1.888421671621740147e-04
-1.841288027619093380e-04
-1.809967278886574424e-04
-1.796762226741285178e-04
-1.788220158285429339e-04
-1.774852865024903643e-04
-1.762406473251704425e-04
-1.759780115145010782e-04
-1.761968682422923984e-04
-1.753197317034859478e-04
-1.726766148329941667e-04
-1.694628590918911566e-04
-1.673823520512880692e-04
-1.667017890594011537e-04
-1.661313011006291022e-04
-1.646025547977355511e-04
-1.625206138397223068e-04
-1.608380990767218233e-04
-1.594514842065372943e-04
-1.572396323152774390e-04
-1.535706729581036390e-04
-1.491524895232233328e-04
-1.450311727959767471e-04
-1.410526641890259532e-04
-1.360398323187135333e-04
-1.295198709843085796e-04
-1.222935274874787075e-04
-1.150917721902868646e-04
-1.079211936302836537e-04
-1.011915291847714023e-04
-9.638750508874786892e-05
-9.481509495226837130e-05
-9.599119296176919936e-05
-9.794971360320122236e-05
-9.929634731112286063e-05
-1.004484194867991359e-04
-1.024498134049404703e-04
-1.050671048962852636e-04
-1.069916454565402321e-04
-1.079325580695631999e-04
-1.095181657845288093e-04
-1.135487148844814640e-04
-1.199020531877717510e-04
-1.269117975710737519e-04
-1.335811340386607797e-04
-1.405592439681357941e-04
-1.487357685960044324e-04
-1.575540766523153167e-04
-1.653556280485794566e-04
-1.713518508625246767e-04
-1.766200994806350465e-04
-1.827027781168878446e-04
-1.897185292388557177e-04
-1.965087317850233890e-04
-2.023835866648346490e-04
-2.079751471771841770e-04
-2.140265728778080988e-04
-2.198744507807277437e-04
-2.238787286391627322e-04
-2.251506362690652375e-04
-2.241621672313438710e-04
-2.218482356626978193e-04
-2.190523953488574004e-04
-2.170139877215032783e-04
-2.173553093873722974e-04
-2.206467914098306964e-04
-2.252611535750897488e-04
-2.285480262848979451e-04
-2.293243327598281441e-04
-2.286643095870628589e-04
-2.281503435236965113e-04
-2.280810987792447533e-04
-2.277759176078921702e-04
-2.270503741703029936e-04
-2.267099359493748747e-04
-2.274227030140248346e-04
-2.285211214698660426e-04
-2.286057559046397692e-04
-2.274425816211084889e-04
-2.265513952472158902e-04
-2.274211085770627087e-04
-2.297178137952314483e-04
-2.318977700390039754e-04
-2.332179342062783893e-04
-2.344232502148105562e-04
-2.362701381035818603e-04
-2.379822818641617573e-04
-2.379556971546991848e-04
-2.359231705434566601e-04
-2.336548699533809491e-04
-2.331339884206125616e-04
-2.345126898959603266e-04
-2.364317586426679463e-04
-2.380726113397451911e-04
-2.400363622726975755e-04
-2.429442696783288592e-04
-2.459571962465434197e-04
-2.474198723587906976e-04
-2.467994592153334226e-04
-2.453623598675420698e-04
-2.446603573670950689e-04
-2.447828736982255045e-04
-2.446878781771966486e-04
-2.440666766165190292e-04
-2.440120252061843561e-04
-2.454742003662212018e-04
-2.477700637350026486e-04
-2.493582389146415225e-04
-2.498003292607547834e-04
-2.501767060711234552e-04
-2.514698746978015899e-04
-2.532287504978304217e-04
-2.542233972634036325e-04
-2.540402564086216845e-04
-2.535423258979305422e-04
-2.536323170972751956e-04
-2.539724990637825283e-04
-2.535552627587376543e-04
-2.523949733776071095e-04
-2.518133093698982257e-04
-2.527673084058382896e-04
-2.545101983273001132e-04
-2.554878133688359763e-04
-2.553095066388645466e-04
-2.551304341297182905e-04
-2.559977410621594408e-04
-2.574919896689268793e-04
-2.583770229422263079e-04
-2.582039743546488109e-04
-2.577866909887594577e-04
-2.579799651940265686e-04
-2.584099803767450892e-04
-2.580907387159707628e-04
-2.572196105453060356e-04
-2.574097556817117063e-04
-2.597114444812261111e-04
-2.631211388381369002e-04
-2.656326022558236832e-04
-2.663810265366114462e-04
-2.661957508670892035e-04
-2.661118739671061240e-04
-2.660018958230999753e-04
-2.651082352618032672e-04
-2.635391391000933402e-04
-2.625179764875828310e-04
-2.629338263984030218e-04
-2.641803421068152969e-04
-2.649281490517866960e-04
-2.648082507273546798e-04
-2.647606885270667476e-04
-2.655576054277888269e-04
-2.665323707391674900e-04
-2.663898298204179062e-04
-2.650890982908388834e-04
-2.641823448858388675e-04
-2.649927779322753195e-04
-2.670609838285404529e-04
-2.689909517193908345e-04
-2.704456327630008132e-04
-2.725349625055046091e-04
-2.760993630478683256e-04
-2.803016188611132326e-04
-2.836038073955811129e-04
-2.858362018041083418e-04
-2.884630038918430442e-04
-2.926180847122329654e-04
-2.975282346327321630e-04
-3.014133954021213052e-04
-3.035632089606186859e-04
-3.047110693523823340e-04
-3.053097149673042465e-04
-3.043497260259240417e-04
-3.005648624046898879e-04
-2.944049989301655910e-04
-2.879540245535755234e-04
-2.827673580642492152e-04
-2.785233147734571127e-04
-2.741965663373716272e-04
-2.699907550193439833e-04
-2.673784577579066944e-04
-2.671848989870368395e-04
-2.683401188273922032e-04
-2.690778128099350795e-04
-2.689449319881873275e-04
-2.688737268737359911e-04
-2.691977254966115623e-04
-2.680312882754666581e-04
-2.617634261841983727e-04
-2.471051658785887103e-04
-2.229269287768432216e-04
-1.907120459813200965e-04
-1.543808767598910028e-04
-1.211606957960844168e-04
-1.027318671621373471e-04
-1.133370743995943709e-04
-1.639632050186270095e-04
-2.562188729829988293e-04
-3.799553152131062849e-04
-5.157151489891217445e-04
-6.402438200772223595e-04
-7.322125877803749251e-04
-7.767381451735052861e-04
-7.687194548436671352e-04
-7.141676689764103270e-04
-6.279949145780309213e-04
-5.285817165185208123e-04
-4.323047260566893800e-04
-3.509631800621772256e-04
-2.915656698406029926e-04
-2.562295979308157703e-04
-2.418822225273912748e-04
-2.414823074770913172e-04
-2.472719023202578164e-04
-2.539005603896265671e-04
-2.590828655521816831e-04
-2.620061799964941212e-04
-2.619263344538053616e-04
-2.585384985315708397e-04
-2.530066993029124619e-04
-2.475944162323096475e-04
-2.438291541473037397e-04
-2.414286308380433357e-04
-2.393510777188884598e-04
-2.374587921342525762e-04
-2.365810095527839420e-04
-2.369733806653789073e-04
-2.374136741288687333e-04
-2.364295040119325812e-04
-2.341125993342275079e-04
-2.319981981625256380e-04
-2.310974802814370031e-04
-2.306540532709447345e-04
-2.292340852621995708e-04
-2.266707838886103778e-04
-2.241862621388223927e-04
-2.225268972390219207e-04
-2.208331207847321286e-04
-2.178932928661103598e-04
-2.139510722202600307e-04
-2.104619901374008917e-04
-2.081629653671169915e-04
-2.061427880322046820e-04
-2.030286576518936718e-04
-1.986020808114429665e-04
-1.937931596325072380e-04
-1.891820614853215871e-04
-1.842069102634609793e-04
-1.782049007000665632e-04
-1.716964097089108856e-04
-1.660686566475288962e-04
-1.620220008268818046e-04
-1.588200081325305112e-04
-1.554402830115355011e-04
-1.520294482380283229e-04
-1.494693216157627776e-04
-1.479528309356955987e-04
-1.471731530551896247e-04
-1.476829820736100425e-04
-1.508027470235550043e-04
-1.568741043347950245e-04
-1.643437405152535632e-04
-1.712067109526912772e-04
-1.771392221028081360e-04
-1.835351964593932655e-04
-1.914212404244420695e-04
-2.001395579930286299e-04
-2.084690513096180389e-04
-2.163293134503774381e-04
-2.245635156203712674e-04
-2.332211633997417983e-04
-2.409626687030829253e-04
-2.465962344353762447e-04
-2.506831008239557095e-04
-2.549603345272378726e-04
-2.602303244611966463e-04
-2.654449859224427958e-04
-2.691537617330043669e-04
-2.713529861191781630e-04
-2.733704899315876429e-04
-2.760917479876571741e-04
-2.789390022403080574e-04
-2.809408157591700974e-04
-2.823261335217164768e-04
-2.843297367868953779e-04
-2.874390762185119268e-04
-2.905271494824808150e-04
-2.920943385265606916e-04
-2.919858730267921114e-04
-2.913717233285838910e-04
-2.910856116839007513e-04
-2.906116622589611305e-04
-2.891099040782317792e-04
-2.869957476147111451e-04
-2.857649127263688061e-04
-2.861891827528442777e-04
-2.873444047471418136e-04
-2.878283309725160593e-04
-2.875388017739648173e-04
-2.876288558894451509e-04
-2.887856876855017041e-04
-2.902912652081868759e-04
-2.910571104737689151e-04
-2.910926020964484475e-04
-2.914173320680854096e-04
-2.925533423192082740e-04
-2.937337158576259046e-04
-2.939436444522257027e-04
-2.933335757182413146e-04
-2.930672544235662447e-04
-2.937681944398988303e-04
-2.947511073166267197e-04
-2.951727858612319499e-04
-2.954162429744154410e-04
-2.966199400343942118e-04
-2.989341128230226744e-04
-3.009926360436449250e-04
-3.013679217760205603e-04
-3.001911414445510040e-04
-2.989950900720743441e-04
-2.988936133210404926e-04
-2.994345784459757497e-04
-2.996361819717607822e-04
-2.995269410987512742e-04
-2.999633033413345146e-04
-3.011583471584532894e-04
-3.021490183627523283e-04
-3.020596728623418286e-04
-3.014763287647507866e-04
-3.019292215420458191e-04
-3.039346974876715765e-04
-3.062141863605183454e-04
-3.072556569411400893e-04
-3.071095049842794528e-04
-3.070579119131746498e-04
-3.077903477076184544e-04
-3.085956354706868637e-04
-3.085202033268871812e-04
-3.078711756656379406e-04
-3.079987856584364488e-04
-3.095324455085467241e-04
-3.114564848103399796e-04
-3.123512794369063855e-04
-3.121657914325551698e-04
-3.121474953400863632e-04
-3.130485863411251366e-04
-3.141380192942567779e-04
-3.143955961429234112e-04
-3.140952908013280257e-04
-3.144719308267781015e-04
-3.159542267926471800e-04
-3.174560883385508072e-04
-3.177643827952610404e-04
-3.171482890799445049e-04
-3.169677835219735147e-04
-3.178246952306176755e-04
-3.187439706513521217e-04
-3.184590233355763045e-04
-3.171242288778373182e-04
-3.161676543335624413e-04
-3.164459160602735321e-04
-3.172424340165826790e-04
-3.174784480243276509e-04
-3.173293868623711686e-04
-3.178848292482777866e-04
-3.193442623934222000e-04
-3.204331729291936561e-04
-3.200220006629690759e-04
-3.187067936774930655e-04
-3.181566310823664263e-04
-3.191385680760461707e-04
-3.207604076272591617e-04
-3.217187989466039418e-04
-3.218697441409601868e-04
-3.221690850022581329e-04
-3.231502672357358945e-04
-3.241420326063567162e-04
-3.243813725759831911e-04
-3.243959598108010420e-04
-3.256032252376951869e-04
-3.284981356153890203e-04
-3.319015904554154157e-04
-3.345252990155213953e-04
-3.368109273207506196e-04
-3.404142587838988074e-04
-3.460044696897769971e-04
-3.523231114478884421e-04
-3.575346021223996923e-04
-3.610180956883275467e-04
-3.634302439782057838e-04
-3.651282291808868787e-04
-3.653456075009119271e-04
-3.633576745605548454e-04
-3.597626918943464653e-04
-3.559399086443170638e-04
-3.523800110230527615e-04
-3.481518125748282191e-04
-3.424193844560534752e-04
-3.360501913536773793e-04
-3.310373361904956442e-04
-3.284662258316778708e-04
-3.276381783398161639e-04
-3.272111055629626630e-04
-3.266766692744254045e-04
-3.263747209787126475e-04
-3.262535067744257362e-04
-3.252736377906394758e-04
-3.223331996919382835e-04
-3.169391550172891755e-04
-3.080688418102676984e-04
-2.930057694213942100e-04
-2.688525594072850686e-04
-2.360097002019707554e-04
-2.002989054055989769e-04
-1.720410077348809340e-04
-1.631778111489699595e-04
-1.841386501205995304e-04
-2.410793244922798889e-04
-3.331410679005587794e-04
-4.500396687248554980e-04
-5.724781004088216278e-04
-6.777207719177292091e-04
-7.479135548087522236e-04
-7.752343154527031009e-04
-7.611912063066300204e-04
-7.130138658943017613e-04
-6.410429062448877056e-04
-5.576561938638599850e-04
-4.759303991885301642e-04
-4.068947084759550782e-04
-3.565056555614397847e-04
-3.248844061492186966e-04
-3.085665998105182836e-04
-3.034375508248209107e-04
-3.056863225623088405e-04
-3.111688541361121662e-04
-3.157734215904867375e-04
-3.172172626176380942e-04
-3.159676349220375316e-04
-3.138952473533097257e-04
-3.120433844549641415e-04
-3.099640702937282786e-04
-3.070812407360936128e-04
-3.040304077770529024e-04
-3.021779520408468642e-04
-3.019546561396521623e-04
-3.022405050863558843e-04
-3.017695692364225015e-04
-3.006968108970066965e-04
-3.001049251706957351e-04
-3.002145391629483734e-04
-2.999218364156524814e-04
-2.982643507607651216e-04
-2.957238511518577766e-04
-2.935762169393790950e-04
-2.921778318262981816e-04
-2.906006133816843823e-04
-2.881804374205501076e-04
-2.857403998869587091e-04
-2.845863304948893519e-04
-2.846765584825913732e-04
-2.847195659402154905e-04
-2.838299237106623038e-04
-2.819317295823721859e-04
-2.786441345798369501e-04
-2.730687445077567771e-04
-2.651350979100581553e-04
-2.564537211386792815e-04
-2.491571282693882342e-04
-2.440221096951480820e-04
-2.402333940621219788e-04
-2.369132901832409887e-04
-2.343332861840815131e-04
-2.332871988970316481e-04
-2.335755876446828322e-04
-2.338737697420270644e-04
-2.332836455389285008e-04
-2.324070025698486436e-04
-2.324817599568976896e-04
-2.337927157455047759e-04
-2.355431382743055301e-04
-2.373064912152707782e-04
-2.399241132535116327e-04
-2.444760992324298719e-04
-2.506866019499874327e-04
-2.570166807832254137e-04
-2.624450543226577396e-04
-2.676577402455982465e-04
-2.740556791883609795e-04
-2.818512391907450191e-04
-2.898150643300928639e-04
-2.969164608456042868e-04
-3.035009006378364496e-04
-3.104415357149633344e-04
-3.175785849821300658e-04
-3.236899722099434613e-04
-3.279912663562752225e-04
-3.311378288527181335e-04
-3.344500192805167156e-04
-3.382748115225972844e-04
-3.415934974190918175e-04
-3.435110742788918597e-04
-3.446027446396155445e-04
-3.461583900371939504e-04
-3.483919443340751081e-04
-3.502014355900995432e-04
-3.507638941195549004e-04
-3.506897845219600937e-04
-3.511831015950616568e-04
-3.523383863225673066e-04
-3.529174471309582447e-04
-3.520307501431625685e-04
-3.504694141061311216e-04
-3.498031088660865946e-04
-3.504109346076110304e-04
-3.511074975492925357e-04
-3.508079279782529603e-04
-3.498553747623749316e-04
-3.492733564990285278e-04
-3.492128272497144257e-04
-3.488180310892197741e-04
-3.476135124851204559e-04
-3.463951265383599155e-04
-3.462533490280565989e-04
-3.470095642877307567e-04
-3.473409458151220414e-04
-3.465863941140027364e-04
-3.457780728825191204e-04
-3.463812496536554310e-04
-3.483925358764621764e-04
-3.503360525370805088e-04
-3.511152442963435052e-04
-3.513091122155803680e-04
-3.522581469657064647e-04
-3.541508003100135886e-04
-3.557395470156001784e-04
-3.561248767454466228e-04
-3.560568439509053025e-04
-3.568706614116984852e-04
-3.586131590318128145e-04
-3.600218187454377948e-04
-3.603148782464668499e-04
-3.602423889251455454e-04
-3.609728874602825474e-04
-3.624021733237315647e-04
-3.632480853272571845e-04
-3.628657704083547626e-04
-3.622968734762457214e-04
-3.630217135213157005e-04
-3.650612699713014111e-04
-3.669291199056906247e-04
-3.673727404318996364e-04
-3.666712554783544005e-04
-3.659969972929227205e-04
-3.658229619079587979e-04
-3.655598150640444158e-04
-3.648122418992905862e-04
-3.642920171517663366e-04
-3.649229255711814389e-04
-3.663597380189409025e-04
-3.671677768193655641e-04
-3.666071024378458800e-04
-3.655917712325515261e-04
-3.654750400997789999e-04
-3.662863263879770933e-04
-3.667955036442645321e-04
-3.663331600527829752e-04
-3.658661669183778387e-04
-3.667826016538544630e-04
-3.690214166467883352e-04
-3.710822810594190200e-04
-3.718347186079042251e-04
-3.716992865188501155e-04
-3.717273674867039635e-04
-3.719552932810392507e-04
-3.713937643825193299e-04
-3.697071346890286911e-04
-3.681612425705941324e-04
-3.683314665988708767e-04
-3.702123702677273119e-04
-3.722509751289107462e-04
-3.732429825521032933e-04
-3.736253109456917632e-04
-3.745220679577879056e-04
-3.759505324822311634e-04
-3.767218714327400420e-04
-3.761295837285311724e-04
-3.750590330395182936e-04
-3.748821033866213599e-04
-3.755701036756091513e-04
-3.757379465940172115e-04
-3.745857227602916446e-04
-3.729923543384740855e-04
-3.723255058081590936e-04
-3.726575736454042697e-04
-3.728005673397189411e-04
-3.720648765786146203e-04
-3.712653615505030411e-04
-3.716232048119082806e-04
-3.731785171408988941e-04
-3.748543311247320574e-04
-3.759545064416933906e-04
-3.770667438079585419e-04
-3.792032303738174562e-04
-3.823460531726220009e-04
-3.854940225203868742e-04
-3.882536855321206239e-04
-3.916352087367028223e-04
-3.967136255173371812e-04
-4.028917831437757967e-04
-4.081942715085408718e-04
-4.113632116428554068e-04
-4.130978456165259856e-04
-4.148589146180672546e-04
-4.169089038235569179e-04
-4.181012081408503537e-04
-4.173486644591883573e-04
-4.147293591766748047e-04
-4.110056863325328930e-04
-4.064230452625341126e-04
-4.006748142098047276e-04
-3.942137986793170469e-04
-3.887348379922798513e-04
-3.856084263207325258e-04
-3.842601038765404908e-04
-3.828618100039210526e-04
-3.805535827119262376e-04
-3.783753578411786400e-04
-3.777150519779762694e-04
-3.783062937215724746e-04
-3.783023592447435019e-04
-3.758376789469218093e-04
-3.695376712387845220e-04
-3.573896826909306454e-04
-3.363982399431013175e-04
-3.049825521967943951e-04
-2.662547960104749852e-04
-2.289695356937179911e-04
-2.055390710960985977e-04
-2.086410951096311864e-04
-2.480159056062564648e-04
-3.278234652784032437e-04
-4.436599936564135003e-04
-5.802504385213395031e-04
-7.136514333658487827e-04
-8.188680237376074139e-04
-8.782414540763833558e-04
-8.856007010240855197e-04
-8.452784937133681281e-04
-7.686715425906317806e-04
-6.712228468226458244e-04
-5.700489228982391415e-04
-4.807985630758974862e-04
-4.138234183461784576e-04
-3.720260738485025274e-04
-3.522862781978529324e-04
-3.487156052723528387e-04
-3.545772790821023887e-04
-3.630293893460556772e-04
-3.686508424554826423e-04
-3.693474861108261387e-04
-3.664765636452771186e-04
-3.625974010304577411e-04
-3.590516105416020724e-04
-3.557837115680635102e-04
-3.528755234160858086e-04
-3.512050610786059276e-04
-3.512598354242624081e-04
-3.519957197000604730e-04
-3.516379262020073097e-04
-3.496140511621782169e-04
-3.471787383229686425e-04
-3.458148031089472983e-04
-3.453632349788353329e-04
-3.443670036775288673e-04
-3.421920344792937210e-04
-3.399324939611162431e-04
-3.388489165006290161e-04
-3.386530762096549179e-04
-3.379527136327247785e-04
-3.360454993600328556e-04
-3.336190267981552801e-04
-3.315192277009702294e-04
-3.294015483699356682e-04
-3.261556074973819995e-04
-3.214405422913109629e-04
-3.162377443641207174e-04
-3.116013342774008989e-04
-3.072505722739659142e-04
-3.020594312328690506e-04
-2.957949534157571446e-04
-2.897007532071136987e-04
-2.851415074951339020e-04
-2.820807137450763707e-04
-2.793806005086344347e-04
-2.764268627033313248e-04
-2.738392903171715667e-04
-2.724017049275894689e-04
-2.718378697036645335e-04
-2.712269841141511811e-04
-2.704710572962027142e-04
-2.706913512332933592e-04
-2.728436607313794839e-04
-2.763737425026443887e-04
-2.798333955297658973e-04
-2.827290341817915759e-04
-2.861646127175049813e-04
-2.914095881460779160e-04
-2.983010158523668933e-04
-3.055147079153362169e-04
-3.122059363714664994e-04
-3.188834543923080712e-04
-3.264457169247112975e-04
-3.347473304638731023e-04
-3.426948880878531983e-04
-3.496629621203802061e-04
-3.561825640930930633e-04
-3.629612342852812489e-04
-3.696940726935567419e-04
-3.753962779863399021e-04
-3.798086952759340820e-04
-3.838745984202854159e-04
-3.884436725231686454e-04
-3.929290384918561105e-04
-3.959754069897946922e-04
-3.973189866132897301e-04
-3.981829157339427392e-04
-3.996658074755171717e-04
-4.014133481166812473e-04
-4.022759795149946204e-04
-4.019035342966380243e-04
-4.012040854833653978e-04
-4.011485416486425390e-04
-4.015147981608626032e-04
-4.012461301698387345e-04
-3.999659241550714895e-04
-3.986306087262101415e-04
-3.983614803171386183e-04
-3.990153717841536619e-04
-3.994533422986130912e-04
-3.991007936320297746e-04
-3.986879249736857526e-04
-3.991565954353624860e-04
-4.003116601703487630e-04
-4.011554263450543573e-04
-4.013127241360969744e-04
-4.015066662481105966e-04
-4.024128579012551852e-04
-4.034334792108029547e-04
-4.032270635058205909e-04
-4.014712244234536491e-04
-3.994784689422469989e-04
-3.987028098465124066e-04
-3.990537717305240109e-04
-3.992542822290746202e-04
-3.986942657791139964e-04
-3.982780553665990118e-04
-3.992170423832212237e-04
-4.014537561647263408e-04
-4.037808490420872467e-04
-4.053508354558616779e-04
-4.064641532470507270e-04
-4.076593635787780271e-04
-4.085949988817166238e-04
-4.084809017285935605e-04
-4.074490619751477190e-04
-4.067995431242535853e-04
-4.076035847680608312e-04
-4.094302245451246968e-04
-4.108880981055484656e-04
-4.113275417264240417e-04
-4.114353353131582416e-04
-4.119523350903305263e-04
-4.124580726615429478e-04
-4.119911098655538355e-04
-4.105729578910903934e-04
-4.094833926325202288e-04
-4.098362622453219860e-04
-4.112643250515126141e-04
-4.124274281900052494e-04
-4.126975284610973202e-04
-4.127934390623897473e-04
-4.135708199156078332e-04
-4.147080879394012725e-04
-4.151080579283656334e-04
-4.144501732423831308e-04
-4.136763526772987976e-04
-4.136580333268443386e-04
-4.139823374377622160e-04
-4.136076406450883832e-04
-4.124351866921299129e-04
-4.116274330062433501e-04
-4.122122472887938425e-04
-4.137788305308892959e-04
-4.149825005229261575e-04
-4.152588328301367237e-04
-4.155067426705592220e-04
-4.167537883914144482e-04
-4.186445590009719477e-04
-4.199645043706372077e-04
-4.204353334809101317e-04
-4.210814015621291051e-04
-4.225729115061333950e-04
-4.239765114005490860e-04
-4.237502587144555935e-04
-4.216500449244682557e-04
-4.190482291347577613e-04
-4.173439685311298411e-04
-4.166241177425598300e-04
-4.161335991174794314e-04
-4.156324893659636937e-04
-4.158018054525016642e-04
-4.172183282149089889e-04
-4.193774440471018431e-04
-4.212232186011755477e-04
-4.225150847534771747e-04
-4.241299897651092045e-04
-4.268248071711144712e-04
-4.301526829692418679e-04
-4.330606890199615059e-04
-4.354252767478140364e-04
-4.384007568372202588e-04
-4.429282128186413838e-04
-4.483291917856947707e-04
-4.528837768730475076e-04
-4.556646511092852961e-04
-4.572724843921878142e-04
-4.586428100240458219e-04
-4.596810248648147755e-04
-4.595397229228269809e-04
-4.579445227792767418e-04
-4.555271384496691056e-04
-4.527151596170784164e-04
-4.489801412323172103e-04
-4.436624837611633388e-04
-4.372502037108002117e-04
-4.313217111336484677e-04
-4.270586502026036345e-04
-4.241612456630246383e-04
-4.215864565072774536e-04
-4.191348970158331288e-04
-4.177866448262931788e-04
-4.183406933916512891e-04
-4.201552846137010066e-04
-4.215680375523077122e-04
-4.211137259364182146e-04
-4.175050139516518267e-04
-4.084317658496571359e-04
-3.906564967960930550e-04
-3.626468063230332416e-04
-3.275080428604528805e-04
-2.934173252290419123e-04
-2.715799363818055187e-04
-2.734203635184653510e-04
-3.078373196900526291e-04
-3.783808298240248628e-04
-4.803475326801116634e-04
-5.993170108104253985e-04
-7.140570348116578262e-04
-8.039171522363161310e-04
-8.558088995418392398e-04
-8.661211604547532951e-04
-8.382721694114873747e-04
-7.798349703332481874e-04
-7.014080237009031552e-04
-6.159877620873568937e-04
-5.367172218934665234e-04
-4.732693588037729460e-04
-4.294780894513121989e-04
-4.040724928320196092e-04
-3.933792970540289061e-04
-3.932365649398253220e-04
-3.991945102341318686e-04
-4.065787488779252709e-04
-4.116145163909897355e-04
-4.128527757593950464e-04
-4.112494169545052977e-04
-4.084130633941106476e-04
-4.048995005137201106e-04
-4.005675439087138601e-04
-3.961169266929419060e-04
-3.932583221355270288e-04
-3.930213593088176336e-04
-3.944812687205896912e-04
-3.957673430489874310e-04
-3.961075654271542425e-04
-3.962343036786048606e-04
-3.968453455491685968e-04
-3.973752212607541264e-04
-3.966481942780898597e-04
-3.944962736476257574e-04
-3.921468630981770308e-04
-3.907175285361889970e-04
-3.898024022999415348e-04
-3.880976601573984269e-04
-3.851831377355129245e-04
-3.819555729000781918e-04
-3.791960261564125321e-04
-3.764693961300216241e-04
-3.728782175712724032e-04
-3.684806248036694913e-04
-3.644158516858831548e-04
-3.615113773861716446e-04
-3.591095839299454466e-04
-3.556949968209822434e-04
-3.506688585181044781e-04
-3.450278216675028379e-04
-3.400236077701945304e-04
-3.356947932837780102e-04
-3.313309682618149790e-04
-3.269991819442478803e-04
-3.237682785342475811e-04
-3.223043126638267235e-04
-3.218984561034796241e-04
-3.213583684891517848e-04
-3.205237064208620945e-04
-3.203510924349957162e-04
-3.215538665167764392e-04
-3.236628038585463566e-04
-3.257599436050784693e-04
-3.278849797281125690e-04
-3.311155237481591446e-04
-3.361119550572580993e-04
-3.421413884077751429e-04
-3.480233434771754517e-04
-3.537220262410250855e-04
-3.603266864927312648e-04
-3.684607656575415247e-04
-3.773169993233544176e-04
-3.854877691525726373e-04
-3.924241220252761096e-04
-3.986681923664494556e-04
-4.045641626464505048e-04
-4.093112555637480458e-04
-4.118931380353146594e-04
-4.126813690211470560e-04
-4.134017057674781864e-04
-4.153286155341876038e-04
-4.180371883454016757e-04
-4.203402719580363899e-04
-4.220357171806889346e-04
-4.240061493698992000e-04
-4.266632923594697270e-04
-4.290786546036056965e-04
-4.299934104036899152e-04
-4.293774226641538854e-04
-4.285187685213746509e-04
-4.284363843747187152e-04
-4.287939482129712074e-04
-4.287614517268539989e-04
-4.284328944628187745e-04
-4.288075943792057010e-04
-4.304091423267300781e-04
-4.324484331955189432e-04
-4.336829584573727802e-04
-4.338744474166383522e-04
-4.338870175801327043e-04
-4.342338428810344061e-04
-4.341766773679647633e-04
-4.327445039949594165e-04
-4.302311133126833411e-04
-4.280869786617061933e-04
-4.272970552908939728e-04
-4.273505580084555836e-04
-4.271480128418355835e-04
-4.265566495846718868e-04
-4.264922007564135500e-04
-4.275210858184907026e-04
-4.290032931543943267e-04
-4.299531246682281689e-04
-4.303857200989826470e-04
-4.312333291974905524e-04
-4.328899485546985415e-04
-4.344741022361893099e-04
-4.349037517240319194e-04
-4.343182428213240810e-04
-4.339156472436778112e-04
-4.343786108753650704e-04
-4.350430650587150633e-04
-4.349285930827087110e-04
-4.341632197411709484e-04
-4.338960433508724465e-04
-4.348316768066075007e-04
-4.363689478868027611e-04
-4.374901166819574047e-04
-4.381454023974157633e-04
-4.392432777734118251e-04
-4.412373933646379859e-04
-4.432626891073480468e-04
-4.441101959529018014e-04
-4.437575853904768427e-04
-4.433693574065567054e-04
-4.437607624547373333e-04
-4.443972876633384833e-04
-4.442793043647988330e-04
-4.434449085427903496e-04
-4.429935401904200429e-04
-4.436012962314114273e-04
-4.445763426687127074e-04
-4.447872199453435497e-04
-4.441892637801476799e-04
-4.438519438365782729e-04
-4.444634784875882319e-04
-4.453685785736404088e-04
-4.454789192724221470e-04
-4.447861533723505389e-04
-4.443821892340529627e-04
-4.449627393206510590e-04
-4.458682214388070501e-04
-4.459993571791604178e-04
-4.453352864810681882e-04
-4.449576127790855597e-04
-4.455558656728281111e-04
-4.465099123040040872e-04
-4.469091336146032139e-04
-4.470204869417742960e-04
-4.480100179148698795e-04
-4.503832376090706035e-04
-4.533516541175977100e-04
-4.558443414352061798e-04
-4.578312466116503865e-04
-4.603480289358761741e-04
-4.641375832727403735e-04
-4.686506357285013429e-04
-4.727989529033659911e-04
-4.764162830246680604e-04
-4.802703546415663114e-04
-4.845790673260232930e-04
-4.882829205009235705e-04
-4.901436959088058005e-04
-4.900630200238439114e-04
-4.888213484695805170e-04
-4.866724761485869809e-04
-4.828551036559963544e-04
-4.768348749111585858e-04
-4.696075379440745176e-04
-4.631790566654752955e-04
-4.587073882856297071e-04
-4.556095074393204836e-04
-4.527185222695493966e-04
-4.498805448580013772e-04
-4.479225699456672251e-04
-4.472574511223104099e-04
-4.471574291078680551e-04
-4.466662752192888963e-04
-4.457675151443769878e-04
-4.448340857971213235e-04
-4.426509275222802794e-04
-4.355385480908217141e-04
-4.192244314211888631e-04
-3.921905798437064672e-04
-3.574906068113806786e-04
-3.219705431995051065e-04
-2.951292718551240643e-04
-2.887636788037518010e-04
-3.151364068085966150e-04
-3.822039231115986215e-04
-4.879895426559199617e-04
-6.181558883479770002e-04
-7.497191743311745326e-04
-8.591854044141542315e-04
-9.294564529642924304e-04
-9.522057342205351950e-04
-9.275115427497930293e-04
-8.631952303168995361e-04
-7.735064649288500615e-04
-6.757003711486514160e-04
-5.851163044143661103e-04
-5.116710284911288363e-04
-4.595571333458254616e-04
-4.288076806655223344e-04
-4.164854968985977563e-04
-4.171436570475773437e-04
-4.240117005531018196e-04
-4.314147663965732385e-04
-4.366025148068296171e-04
-4.392712039629373898e-04
-4.396814222821778472e-04
-4.376851433282404383e-04
-4.334284707733516962e-04
-4.282553416116283065e-04
-4.241254808145895005e-04
-4.219565326665717904e-04
-4.210319198713200536e-04
-4.202916440008160992e-04
-4.197078540325104674e-04
-4.199174967684675191e-04
-4.208111370141051329e-04
-4.211659813001170484e-04
-4.199024280440351049e-04
-4.173751366420403960e-04
-4.149757312265605204e-04
-4.134414303262525653e-04
-4.120499909121724097e-04
-4.097621588781173523e-04
-4.066892437970817068e-04
-4.038415603510556477e-04
-4.016394742463202960e-04
-3.993612082090395145e-04
-3.962106582069222643e-04
-3.924468704312325876e-04
-3.890216799766524867e-04
-3.862050677073481167e-04
-3.830888140808067421e-04
-3.787301437611651097e-04
-3.734104243634682658e-04
-3.682814950807865675e-04
-3.638834155638811705e-04
-3.595352602610467287e-04
-3.544526221884638909e-04
-3.490570056033535581e-04
-3.445804071509257511e-04
-3.415051118185655058e-04
-3.390565076553766263e-04
-3.364699325770461789e-04
-3.342877109867928298e-04
-3.338126968317757211e-04
-3.353569861515821936e-04
-3.377164966524595050e-04
-3.396621706669731905e-04
-3.414461096496937539e-04
-3.443909223134736697e-04
-3.492200524509994565e-04
-3.552627773267453041e-04
-3.614192327737029043e-04
-3.675542120007268946e-04
-3.744829231483787408e-04
-3.826001316548731769e-04
-3.911292351722345934e-04
-3.991424753754224111e-04
-4.068847109409369695e-04
-4.153439593183994418e-04
-4.245222326943619740e-04
-4.329169858655878287e-04
-4.391505852926716100e-04
-4.436029867791362936e-04
-4.478026849563407981e-04
-4.524671113770616700e-04
-4.568571865682421042e-04
-4.600620344652729351e-04
-4.623001574578836613e-04
-4.645470478079280225e-04
-4.670598501857161277e-04
-4.688956052131858167e-04
-4.691772626690714817e-04
-4.683799855320871413e-04
-4.678543779295222279e-04
-4.681899583870970994e-04
-4.686221909065952469e-04
-4.682677975347746251e-04
-4.674058644712094073e-04
-4.670501535240293139e-04
-4.676441697435891089e-04
-4.688507964548144116e-04
-4.703827531233595034e-04
-4.721605288920216557e-04
-4.735947627237074679e-04
-4.736196810393929505e-04
-4.719349502973930479e-04
-4.697478597250591154e-04
-4.687299751477378177e-04
-4.692892471442372169e-04
-4.703023158934623461e-04
-4.706743199187490173e-04
-4.706580667889980981e-04
-4.712260087216462259e-04
-4.724830550025056384e-04
-4.733568568629179939e-04
-4.730244200401765805e-04
-4.720815031021993410e-04
-4.718379931131971633e-04
-4.727290796608902635e-04
-4.738809627300900212e-04
-4.743729676805815841e-04
-4.745337831977604077e-04
-4.754178188385907423e-04
-4.772156403585626344e-04
-4.789138220638943064e-04
-4.796177827111583101e-04
-4.796761454741770903e-04
-4.800934034257592288e-04
-4.810692310763454885e-04
-4.817192780066069119e-04
-4.813455513244225235e-04
-4.804833481880665144e-04
-4.802575697318676876e-04
-4.809017099341241787e-04
-4.815312771057212306e-04
-4.815070916202944637e-04
-4.814454116244635683e-04
-4.824338998234156965e-04
-4.844745487221979252e-04
-4.862786067083408291e-04
-4.868416837783523629e-04
-4.867491047695191486e-04
-4.873464165061410923e-04
-4.888478646845632533e-04
-4.900040054756800694e-04
-4.897660280665611056e-04
-4.886239999190213762e-04
-4.878802377588132861e-04
-4.879464605564876479e-04
-4.879544649812062322e-04
-4.871553000860931481e-04
-4.860643725735715225e-04
-4.856948999982156579e-04
-4.860659325683902836e-04
-4.861495204075788027e-04
-4.853238418091812426e-04
-4.843415319106843925e-04
-4.844635711275491435e-04
-4.858317934075760658e-04
-4.872264402738754087e-04
-4.875963712750294634e-04
-4.873210179799197773e-04
-4.875636337483607499e-04
-4.887426693774821716e-04
-4.901488954620859210e-04
-4.910669251166325687e-04
-4.918086365556351798e-04
-4.931843346948607204e-04
-4.951889464603109791e-04
-4.969189555724932593e-04
-4.978864579420322865e-04
-4.988364035138306450e-04
-5.009043749214681530e-04
-5.042354102071812784e-04
-5.078609656046607435e-04
-5.109171144158627985e-04
-5.135992924393527901e-04
-5.165926264161136046e-04
-5.197525040470826708e-04
-5.219951878153849135e-04
-5.226514752154709856e-04
-5.222891145135998827e-04
-5.217506254804559190e-04
-5.207571797701845799e-04
-5.180961490074266311e-04
-5.133100185874115611e-04
-5.076776177299105160e-04
-5.030437537588723770e-04
-4.999113581730335685e-04
-4.972378595643825450e-04
-4.941242889203505085e-04
-4.910639672222360304e-04
-4.891271682101772404e-04
-4.883903397707894164e-04
-4.878300576144228590e-04
-4.867209599072667937e-04
-4.853926024690113829e-04
-4.839232611791694188e-04
-4.801781666800826009e-04
-4.698592768491872268e-04
-4.492311885980130432e-04
-4.181806475615640882e-04
-3.809270634941480703e-04
-3.448473375179030714e-04
-3.199048198932304891e-04
-3.185204759030585311e-04
-3.531464369136245660e-04
-4.308491659605360254e-04
-5.476499937328404687e-04
-6.869051021397698650e-04
-8.241220702689576938e-04
-9.352036215968051805e-04
-1.002598888120378832e-03
-1.017728807173830024e-03
-9.815872933213133297e-04
-9.044236732790780081e-04
-8.034433266664106491e-04
-6.979165493841794563e-04
-6.036993311209990767e-04
-5.303310222482175793e-04
-4.813889637820250190e-04
-4.559663107802509581e-04
-4.495115865730773684e-04
-4.546650654661541836e-04
-4.634685438276498252e-04
-4.703369348013845927e-04
-4.734690939039285949e-04
-4.735867770536621537e-04
-4.716358993916468039e-04
-4.678586196878140079e-04
-4.626582798049071773e-04
-4.573817115453380350e-04
-4.534482756163104949e-04
-4.509988295493623425e-04
-4.490633712706890309e-04
-4.469554806377430039e-04
-4.450486780210015651e-04
-4.440198204171375788e-04
-4.436256768217643328e-04
-4.427730519784356454e-04
-4.409322118250184625e-04
-4.389299125932427399e-04
-4.378320735945636353e-04
-4.373875816719299879e-04
-4.362445933205962327e-04
-4.336949265964831204e-04
-4.306022651214240363e-04
-4.282317134873921604e-04
-4.265811448082828649e-04
-4.244583180861626688e-04
-4.210683386543230371e-04
-4.169439049272282804e-04
-4.130404840631746784e-04
-4.093265384200554520e-04
-4.048677933221399121e-04
-3.992119156647359391e-04
-3.930847218335109658e-04
-3.874912946558851479e-04
-3.825112520883394446e-04
-3.773986837035605982e-04
-3.718258953028955667e-04
-3.665963563725813589e-04
-3.627948121646999637e-04
-3.604467391503133277e-04
-3.585304163657398709e-04
-3.564048171065089176e-04
-3.547084299177431896e-04
-3.544277114990004363e-04
-3.554447039461004743e-04
-3.566623312221121780e-04
-3.575773327634455237e-04
-3.591358221079178300e-04
-3.626047898345283334e-04
-3.678844569817214154e-04
-3.735852933635668460e-04
-3.788142194703853828e-04
-3.842038080850048972e-04
-3.908730154342417444e-04
-3.989118969560440011e-04
-4.074155734260389672e-04
-4.158692646216638543e-04
-4.248352698261517995e-04
-4.348267728788743716e-04
-4.449350640095081242e-04
-4.533273999927357701e-04
-4.592021583844708207e-04
-4.636254203735203430e-04
-4.680522299340962827e-04
-4.725974357666378367e-04
-4.763074944905205032e-04
-4.787109420104074253e-04
-4.804780225345409140e-04
-4.824664107235530669e-04
-4.845070433096353526e-04
-4.856242083931624652e-04
-4.854244492462084096e-04
-4.847437089343339706e-04
-4.846526895951962341e-04
-4.851525606753356737e-04
-4.853332409697518122e-04
-4.847507417119036933e-04
-4.841037120368538995e-04
-4.842878050452971016e-04
-4.850979207776986426e-04
-4.853562763850905338e-04
-4.843322303888041957e-04
-4.824361150916442096e-04
-4.803759894529537684e-04
-4.785047505555059142e-04
-4.773775259299016462e-04
-4.780123322876682910e-04
-4.808337905442292091e-04
-4.847218543300008098e-04
-4.877717537919728130e-04
-4.890875123432021805e-04
-4.894030578276528393e-04
-4.898247490359681567e-04
-4.904671437450219265e-04
-4.906441521803647050e-04
-4.901696687522521861e-04
-4.899472170106478584e-04
-4.908905469757664491e-04
-4.926173134584515678e-04
-4.938119011973631867e-04
-4.938286476155494872e-04
-4.934285996248794458e-04
-4.936530819493946832e-04
-4.944318630281058311e-04
-4.948801539443941841e-04
-4.947005316218062998e-04
-4.946515838701344555e-04
-4.954491348005908482e-04
-4.966578227542522723e-04
-4.971868409278455258e-04
-4.967221553795914688e-04
-4.961808317810994379e-04
-4.965942785777590013e-04
-4.978186196234433980e-04
-4.987592441480398790e-04
-4.988134728933548692e-04
-4.985865120835821082e-04
-4.989544803343862189e-04
-4.997930260684940468e-04
-5.001832707017289008e-04
-4.998384865734411056e-04
-4.996444996198094344e-04
-5.004581493036268196e-04
-5.018519137110001886e-04
-5.025435910312939366e-04
-5.019406408497742705e-04
-5.008099479397391373e-04
-5.002452570531828492e-04
-5.003099474294665826e-04
-5.001521287168296396e-04
-4.993580212069139226e-04
-4.985819273487683079e-04
-4.985450364298981384e-04
-4.989042327077960592e-04
-4.986871582446638371e-04
-4.976712875226499888e-04
-4.967695229053143043e-04
-4.968490597517069996e-04
-4.975702120049406429e-04
-4.979063700323657507e-04
-4.976504719521727439e-04
-4.977009439332206586e-04
-4.986575794853455659e-04
-4.999853234377284140e-04
-5.011213421305172645e-04
-5.025115860937298369e-04
-5.047533400726376225e-04
-5.073513231292646258e-04
-5.091710128002154175e-04
-5.099502179015024056e-04
-5.106795030284098274e-04
-5.123199435661063370e-04
-5.146394606206158720e-04
-5.167037106134134659e-04
-5.183172408751089396e-04
-5.204865284564823670e-04
-5.241846744174152731e-04
-5.289577829987883494e-04
-5.332835354847732324e-04
-5.362684638308411493e-04
-5.383968212472772276e-04
-5.404129171516196132e-04
-5.420358121586513764e-04
-5.422905494243472320e-04
-5.408950032540474264e-04
-5.386472988820283471e-04
-5.361783332025304560e-04
-5.329397967187879089e-04
-5.280669182034230125e-04
-5.219969861682641774e-04
-5.165573862742924537e-04
-5.131972902631543997e-04
-5.115114042436506815e-04
-5.099378850708250269e-04
-5.077137556361601117e-04
-5.055846798376714040e-04
-5.045194429982383924e-04
-5.042984131245476214e-04
-5.037293385170602640e-04
-5.017066829923064663e-04
-4.971168387775046216e-04
-4.875986859586205289e-04
-4.695883088348139006e-04
-4.410315581194781910e-04
-4.046200835204517431e-04
-3.684852996239258152e-04
-3.441800206740341819e-04
-3.437383575484279389e-04
-3.767002660994530684e-04
-4.471818211762436488e-04
-5.510468937399552215e-04
-6.742476219062596690e-04
-7.952471785558388540e-04
-8.922277739509314404e-04
-9.504667040651419794e-04
-9.649815481704901833e-04
-9.386238806072495300e-04
-8.792160317644498414e-04
-7.980188376636554014e-04
-7.087182314737288562e-04
-6.250884077867538977e-04
-5.574134704179442741e-04
-5.100554009183268928e-04
-4.820355021406571953e-04
-4.696201486937341034e-04
-4.683304731635834386e-04
-4.733500627105632907e-04
-4.797145050319924172e-04
-4.836122491433438313e-04
-4.839147540418911576e-04
-4.820056693739911626e-04
-4.796862879783465199e-04
-4.773775160622274229e-04
-4.745494769038123930e-04
-4.713230684383168086e-04
-4.687810321020702254e-04
-4.676204583680312736e-04
-4.671592954784545607e-04
-4.661151964880620052e-04
-4.641069636493938338e-04
-4.619555304905821852e-04
-4.604851608002264937e-04
-4.594018955491991577e-04
-4.577463213937049214e-04
-4.553316139606423713e-04
-4.530406281854687978e-04
-4.514532419818192825e-04
-4.498686255172627390e-04
-4.472083409621330306e-04
-4.435987831049885335e-04
-4.404986583748584793e-04
-4.390412513998971427e-04
-4.386419543432001455e-04
-4.377202746330977881e-04
-4.355846772827207743e-04
-4.329377154503979194e-04
-4.304306319795517905e-04
-4.274491984778820176e-04
-4.228427476421576440e-04
-4.165411962310029996e-04
-4.098646935807252062e-04
-4.041195464635085428e-04
-3.993759345354028299e-04
-3.949737639014343649e-04
-3.908550051698180894e-04
-3.878336483605333103e-04
-3.864730648989953281e-04
-3.861333561517097789e-04
-3.856549379875305605e-04
-3.849206857977685841e-04
-3.850603098145618662e-04
-3.868490621681813920e-04
-3.895730539581041983e-04
-3.920258268608835294e-04
-3.941852329387400956e-04
-3.972809695743309425e-04
-4.022621468209455027e-04
-4.086404587683549472e-04
-4.151845031883429093e-04
-4.215403384607556577e-04
-4.284397913482819020e-04
-4.362235471140170286e-04
-4.439973312944123793e-04
-4.506635899548219922e-04
-4.563351325647302848e-04
-4.622205085431473201e-04
-4.690813117954352723e-04
-4.761907944488333582e-04
-4.821008793052165386e-04
-4.862594864597511780e-04
-4.894552578520767897e-04
-4.925971086718438762e-04
-4.955586659015239186e-04
-4.976262824955635447e-04
-4.987064964796646908e-04
-4.993456441269868802e-04
-4.997062744520222415e-04
-4.994959428292637454e-04
-4.989854453280223633e-04
-4.991542600081219378e-04
-5.004396024503959773e-04
-5.018979839977768783e-04
-5.021794116816298168e-04
-5.011951074140615471e-04
-5.002134211712135764e-04
-5.002469029679259974e-04
-5.009428133914795933e-04
-5.013111531300535034e-04
-5.012038952631070075e-04
-5.015673765447499878e-04
-5.030591345357145281e-04
-5.049412163153117620e-04
-5.058681914405474718e-04
-5.055083161500846262e-04
-5.047872614929501539e-04
-5.045196944011069674e-04
-5.043979692766176973e-04
-5.036520933329089421e-04
-5.023683864889250637e-04
-5.015762903165137728e-04
-5.019209279892059786e-04
-5.027789980874629956e-04
-5.030524115908845649e-04
-5.025819270711309001e-04
-5.022752721031522368e-04
-5.027737231807352181e-04
-5.035735183443264436e-04
-5.038367627892521372e-04
-5.036527673598134363e-04
-5.039094388150735550e-04
-5.049708420867160975e-04
-5.060516522568434634e-04
-5.061959085162191525e-04
-5.055872926403656578e-04
-5.054171936287640398e-04
-5.063691589806530811e-04
-5.077006341223801828e-04
-5.082121797028063114e-04
-5.078065597036082995e-04
-5.075321467399749806e-04
-5.081292043442203234e-04
-5.091210112237546390e-04
-5.096402569176302971e-04
-5.097626272374749341e-04
-5.104283531706307062e-04
-5.119619557505881687e-04
-5.132916065842521493e-04
-5.131529594720411064e-04
-5.117527008459227212e-04
-5.105893908056125755e-04
-5.106286859839445115e-04
-5.113526394902533599e-04
-5.118541398142369657e-04
-5.122236558552283265e-04
-5.133170905483406404e-04
-5.153745978157523886e-04
-5.173966667923801449e-04
-5.181244457958663827e-04
-5.174665102573457708e-04
-5.165075562703502375e-04
-5.159670517820006590e-04
-5.152422432983578713e-04
-5.134500725055324332e-04
-5.110008553259831696e-04
-5.094081944361255514e-04
-5.095104455717201644e-04
-5.105918218945560121e-04
-5.115459428642175508e-04
-5.123109868479277899e-04
-5.136589169547049359e-04
-5.158116885581659136e-04
-5.177991658955800360e-04
-5.184154548970777319e-04
-5.176652029957156667e-04
-5.168620824339791161e-04
-5.170738409241103489e-04
-5.179282930692564362e-04
-5.184021124385140671e-04
-5.183289823253098283e-04
-5.184523869261919082e-04
-5.191339187972478838e-04
-5.196844787696732870e-04
-5.193203026319835819e-04
-5.184830607056771686e-04
-5.185665996054778263e-04
-5.202068519531115190e-04
-5.224595473141477450e-04
-5.239681672592164411e-04
-5.245313876031923363e-04
-5.251042560523184327e-04
-5.263955956783117210e-04
-5.280394341859386172e-04
-5.293567393226093504e-04
-5.305137508011222632e-04
-5.324185923683797143e-04
-5.354508734146675537e-04
-5.388707754670626297e-04
-5.418048724055215268e-04
-5.443774656115118798e-04
-5.473859928647647468e-04
-5.509671760917024975e-04
-5.540856719314633284e-04
-5.556214043779821206e-04
-5.556483900747842715e-04
-5.550847128563469362e-04
-5.541435643667508119e-04
-5.518307599852321967e-04
-5.472979283851642923e-04
-5.412669080092331149e-04
-5.355860088769429138e-04
-5.313902549748148818e-04
-5.281816058066569723e-04
-5.249363683156086334e-04
-5.216509660000124247e-04
-5.192306569868769843e-04
-5.180127402487170194e-04
-5.171514767762149531e-04
-5.157315541317754716e-04
-5.138697604825076103e-04
-5.120024345796270670e-04
-5.088898562927503559e-04
-5.007798105163031865e-04
-4.834508792067080491e-04
-4.556578939195745845e-04
-4.206407773543015998e-04
-3.850088164474523402e-04
-3.577085778198649106e-04
-3.500815829088140701e-04
-3.742920023697104666e-04
-4.384779297896208351e-04
-5.409859277238350484e-04
-6.679334629946047895e-04
-7.969383814362858420e-04
-9.051264208450870985e-04
-9.757323416523086459e-04
-1.000263213927660893e-03
-9.782623461840908672e-04
-9.169765362468948813e-04
-8.302223470989155080e-04
-7.349851940417173298e-04
-6.465411326801969501e-04
-5.749016677263118005e-04
-5.243477345814737600e-04
-4.948744660571491099e-04
-4.833502948767203844e-04
-4.841033859280216870e-04
-4.902711480819551410e-04
-4.962149073541250247e-04
-4.993655283934114774e-04
-4.998463168611418962e-04
-4.984717908420766182e-04
-4.954826310741978872e-04
-4.911005755754864260e-04
-4.864790779894735510e-04
-4.832095226718752506e-04
-4.817330892659130517e-04
-4.809114690157330341e-04
-4.795230731033070818e-04
-4.777208613281454176e-04
-4.766086394886138110e-04
-4.766063876510513654e-04
-4.768414681757535199e-04
-4.763655444347023146e-04
-4.754203948599928999e-04
-4.749166631259022571e-04
-4.748713787474344306e-04
-4.741031795655234449e-04
-4.717084049277343459e-04
-4.683079855653337177e-04
-4.653291257080313897e-04
-4.632410283543092217e-04
-4.610845011164184945e-04
-4.578136808045114555e-04
-4.535934898887262296e-04
-4.493992245285739675e-04
-4.455516590784818712e-04
-4.412754849323862719e-04
-4.358828332320721101e-04
-4.298899619298530224e-04
-4.244946967430749969e-04
-4.200283380445654548e-04
-4.155163217474350072e-04
-4.100974506105319614e-04
-4.043680646790280314e-04
-3.997655212729147038e-04
-3.968538092429282189e-04
-3.948066451913325304e-04
-3.926877465273010933e-04
-3.907509098843872739e-04
