-2.288733680937150635e-05
-1.807930752887123324e-04
-6.932044808093808068e-04
-1.750771426902799927e-03
-3.329645460099213503e-03
-5.153366025022722979e-03
-6.841197584393899842e-03
-8.112868118538344581e-03
-8.885266618315592474e-03
-9.214857799665203755e-03
-9.193928213830518045e-03
-8.920272897616154939e-03
-8.529194103583104258e-03
-8.185585437463603967e-03
-8.001943811955552349e-03
-7.972119607402614050e-03
-8.010279175855226572e-03
-8.054659883574753765e-03
-8.112563229242359189e-03
-8.203581987223080782e-03
-8.293837959237040577e-03
-8.319387851574317275e-03
-8.267374559471532547e-03
-8.198930268956575868e-03
-8.176460781466164326e-03
-8.190665255115532617e-03
-8.184354511647756736e-03
-8.138312604989960883e-03
-8.100020545220607687e-03
-8.116206948963533563e-03
-8.164237745887328868e-03
-8.179035051923081584e-03
-8.139844564739392649e-03
-8.097443462616855589e-03
-8.103899977551285924e-03
-8.141471656382060634e-03
-8.148289426594072099e-03
-8.104993729533511299e-03
-8.062175853178331353e-03
-8.070613211711930024e-03
-8.111008495650169625e-03
-8.120309773812275575e-03
-8.078479256937439595e-03
-8.036002176320318144e-03
-8.044084107386981208e-03
-8.083932977016259833e-03
-8.092609898775828675e-03
-8.049770067839603221e-03
-8.005515584926247569e-03
-8.011147754044335365e-03
-8.048830136562701992e-03
-8.056983805796119266e-03
-8.015822000965767968e-03
-7.974616719993214697e-03
-7.983440220739752499e-03
-8.024071341344854100e-03
-8.035125580838848106e-03
-7.996533609231616657e-03
-7.956733870726286767e-03
-7.965236770678436537e-03
-8.003790882472480717e-03
-8.010853775189180279e-03
-7.965907334790717220e-03
-7.917659103764790665e-03
-7.917438468900295928e-03
-7.949937119894208079e-03
-7.956216722791835394e-03
-7.916374345144973693e-03
-7.877300712985898026e-03
-7.887359381632725458e-03
-7.928800257089320055e-03
-7.941476976137137531e-03
-7.905149063280604918e-03
-7.866490324869225559e-03
-7.873506314592028377e-03
-7.908413171654315316e-03
-7.911920615206513574e-03
-7.865612870863200254e-03
-7.818446107810168508e-03
-7.820131139906302820e-03
-7.852971086219814531e-03
-7.855622019947484241e-03
-7.804700134355529659e-03
-7.740084940884616252e-03
-7.699722505891866582e-03
-7.658264438052674559e-03
-7.559912195002183900e-03
-7.404814926846448563e-03
-7.272266582828857545e-03
-7.246585195739850375e-03
-7.339192378069859732e-03
-7.503031565173990357e-03
-7.710071904453317561e-03
-7.978133488985073019e-03
-8.310177513561799179e-03
-8.638322873043878872e-03
-8.860582869423531960e-03
-8.930720952959020353e-03
-8.887609357548632502e-03
-8.789258912820304900e-03
-8.642600278983924786e-03
-8.422272496713577999e-03
-8.146218807208187654e-03
-7.894799386581212441e-03
-7.738020741046687523e-03
-7.665300157504098197e-03
-7.612247685682683312e-03
-7.548425779614078256e-03
-7.508115003322195051e-03
-7.526383047237253376e-03
-7.573861887882678279e-03
-7.583862205789980784e-03
-7.536172276280777606e-03
-7.481658221462435601e-03
-7.472485509846344895e-03
-7.492982023437305510e-03
-7.485016008386746744e-03
-7.431665957532055007e-03
-7.382674010510807162e-03
-7.385998567023463295e-03
-7.420405132270420888e-03
-7.423057261787204160e-03
-7.374934505065164694e-03
-7.326146901769123310e-03
-7.325804281307753997e-03
-7.353375357150985538e-03
-7.346616005012726602e-03
-7.287966214057465218e-03
-7.229849840044478421e-03
-7.223285352015128280e-03
-7.248165975653974268e-03
-7.241303908574414638e-03
-7.183548286119662354e-03
-7.125617304313045137e-03
-7.117114516782627014e-03
-7.137231901231253645e-03
-7.122934172249154212e-03
-7.055798051459174873e-03
-6.987574333287185045e-03
-6.969192486723261443e-03
-6.981388310749169282e-03
-6.962625728389871052e-03
-6.895594831885160265e-03
-6.832291970741130593e-03
-6.822753769396421551e-03
-6.846217009075987285e-03
-6.839996069426347580e-03
-6.786349271801258264e-03
-6.737188216443908660e-03
-6.742382273288785588e-03
-6.780858835994837443e-03
-6.789697779918476075e-03
-6.751177405787661852e-03
-6.717525261428318462e-03
-6.739265870509658640e-03
-6.796080763913046885e-03
-6.825111210789856081e-03
-6.807490004502952073e-03
-6.793655855180651126e-03
-6.832758064720879237e-03
-6.904080361566306348e-03
-6.944968282681185899e-03
-6.936449060716760526e-03
-6.928319354012521178e-03
-6.969292098308692979e-03
-7.038905671652938810e-03
-7.075186883531842108e-03
-7.059841404832690667e-03
-7.042949933209931811e-03
-7.073132364666273944e-03
-7.130212104808858128e-03
-7.153166014022380344e-03
-7.124407082158655015e-03
-7.094011621022839817e-03
-7.110683736227781451e-03
-7.154956466336155098e-03
-7.166520030037090878e-03
-7.127658429053494379e-03
-7.087622346717665014e-03
-7.094772777651230794e-03
-7.130506306646828586e-03
-7.135821680900052144e-03
-7.093562616314946431e-03
-7.052437486206883724e-03
-7.059599142748128157e-03
-7.095217774883882771e-03
-7.099437679796111872e-03
-7.054753365148574984e-03
-7.010134306278613045e-03
-7.013527414038780126e-03
-7.046162322681364179e-03
-7.049170235029570894e-03
-7.005429699960559649e-03
-6.963449416656603344e-03
-6.970357437775130324e-03
-7.006665503080413727e-03
-7.012947299912224673e-03
-6.971792908053140586e-03
-6.931603356432283584e-03
-6.939376553675837521e-03
-6.975841184656168814e-03
-6.982430356520853178e-03
-6.942719061942733035e-03
-6.905511253565274274e-03
-6.917199250208749296e-03
-6.957071941919737955e-03
-6.965413824802886740e-03
-6.925987293935014985e-03
-6.888836684993650955e-03
-6.901435204752580377e-03
-6.943008065772936221e-03
-6.952772265525091790e-03
-6.913572117404503427e-03
-6.875399567467218968e-03
-6.886140596323224970e-03
-6.925484512856779594e-03
-6.933270308139000485e-03
-6.893027093277483315e-03
-6.855100531838589917e-03
-6.867159143708831577e-03
-6.908124961815681649e-03
-6.917023889140836053e-03
-6.877211303127399311e-03
-6.839309103413393313e-03
-6.850941467606966317e-03
-6.890670528194517419e-03
-6.897514365861254909e-03
-6.855456587795153919e-03
-6.815970021389186617e-03
-6.826951336485453589e-03
-6.866306319404033576e-03
-6.872246743753308330e-03
-6.828841069184517915e-03
-6.788460007531275583e-03
-6.799721466874276976e-03
-6.840446441574813199e-03
-6.848176712287494701e-03
-6.806182790883628583e-03
-6.766074219118634221e-03
-6.775927943055114200e-03
-6.813708849191689107e-03
-6.818051844185452764e-03
-6.773885241314547660e-03
-6.734158742482633173e-03
-6.747156412223811323e-03
-6.789768164215202045e-03
-6.798844069944863337e-03
-6.757688287026437750e-03
-6.718513650180707626e-03
-6.729829801747252462e-03
-6.769211025023045940e-03
-6.774410507421659185e-03
-6.729856507744846374e-03
-6.688646959587302328e-03
-6.699413506591556447e-03
-6.739171584707500696e-03
-6.744897248730064888e-03
-6.700528131067091074e-03
-6.659135027438781336e-03
-6.669476566678291668e-03
-6.708824021401167681e-03
-6.714880069782567205e-03
-6.672343613983712680e-03
-6.634124615821266301e-03
-6.647892936145454422e-03
-6.689717030144421220e-03
-6.696534217267532604e-03
-6.652960635707354242e-03
-6.612696565034358216e-03
-6.624837128266787556e-03
-6.666633737228111825e-03
-6.675031929546332808e-03
-6.633383211020340599e-03
-6.593868431560444623e-03
-6.605077709229015791e-03
-6.645114556920694165e-03
-6.652359947558629701e-03
-6.610991969326123797e-03
-6.572730101789284185e-03
-6.584877598003724929e-03
-6.624489706261505774e-03
-6.629620959523911845e-03
-6.584656361181965775e-03
-6.541897323073154677e-03
-6.549628374721714642e-03
-6.586170211951421390e-03
-6.590662986836266952e-03
-6.547833189852413603e-03
-6.509368327990625730e-03
-6.522200202650920049e-03
-6.563066938916298221e-03
-6.569893886578898230e-03
-6.526863970524947670e-03
-6.485755457125583212e-03
-6.494128817153901022e-03
-6.529687463452608920e-03
-6.531244013682710632e-03
-6.483481892624207328e-03
-6.438399252721771493e-03
-6.443811628018107814e-03
-6.477582234368558373e-03
-6.477269480655332284e-03
-6.422537929243668856e-03
-6.355355567192920267e-03
-6.311564871814989534e-03
-6.263112484811581004e-03
-6.156053796738340106e-03
-5.996207259744221717e-03
-5.866751990180429747e-03
-5.850937763563032745e-03
-5.956885628404118109e-03
-6.136033862729140670e-03
-6.359710811464441838e-03
-6.641528591921684252e-03
-6.976625051559282205e-03
-7.292277734670017317e-03
-7.490278106962547713e-03
-7.534255261211933279e-03
-7.471044869978976481e-03
-7.360440549407138051e-03
-7.208316729298762209e-03
-6.990289115254443367e-03
-6.726384661993000530e-03
-6.494932697239841519e-03
-6.358375853005249212e-03
-6.298764643918293785e-03
-6.250884851879913787e-03
-6.189194733424502846e-03
-6.151936335929522257e-03
-6.173114897276084541e-03
-6.220443018828346847e-03
-6.228057325723387883e-03
-6.180466322534275241e-03
-6.131517859328962546e-03
-6.130688355820728373e-03
-6.157091918546722144e-03
-6.151278088241279342e-03
-6.100146561719445998e-03
-6.056668421634803755e-03
-6.066501907503659211e-03
-6.103381782579547776e-03
-6.103651449417049450e-03
-6.053237510454359711e-03
-6.006682449082864812e-03
-6.011213990194568327e-03
-6.040813767284721782e-03
-6.031895289197990000e-03
-5.971818939547303071e-03
-5.917452108893278204e-03
-5.917245271020689194e-03
-5.944336991047051433e-03
-5.933315632421744083e-03
-5.870317999587535036e-03
-5.812029036898128456e-03
-5.807145390373638465e-03
-5.828938927768286329e-03
-5.812163640925909966e-03
-5.743496250147474627e-03
-5.680337885093164271e-03
-5.671687352201305356e-03
-5.690601936810017573e-03
-5.671802352549845314e-03
-5.602726165220231307e-03
-5.541837409426549933e-03
-5.538290226857959901e-03
-5.564098364402196746e-03
-5.552933941607695809e-03
-5.492267442715350820e-03
-5.441343477861577092e-03
-5.449954667067865265e-03
-5.490361818493591506e-03
-5.496241241340475182e-03
-5.454792667235432678e-03
-5.424640683324577148e-03
-5.454739965967227329e-03
-5.516540977763816425e-03
-5.543094918302566079e-03
-5.521103649741673954e-03
-5.508702739742251699e-03
-5.554560715626558932e-03
-5.630322412922036078e-03
-5.669247432167125525e-03
-5.657369276456771304e-03
-5.651349275717508676e-03
-5.698597531524736241e-03
-5.770476357277657189e-03
-5.801047685153062905e-03
-5.777858475869464792e-03
-5.759142321529578216e-03
-5.793589037647296769e-03
-5.853573361718766854e-03
-5.873789430195530160e-03
-5.841898071500890161e-03
-5.815779465359504491e-03
-5.843314654590572345e-03
-5.895741279346070063e-03
-5.906713196564242381e-03
-5.863327286954952630e-03
-5.823598153758930210e-03
-5.836394661569911657e-03
-5.874652285933822798e-03
-5.873938339012089657e-03
-5.822819597413745121e-03
-5.779735247781118794e-03
-5.792830183550471378e-03
-5.833600615634848205e-03
-5.835987942498608617e-03
-5.787263699902459729e-03
-5.745274712033395653e-03
-5.758141887834561552e-03
-5.797571929366179995e-03
-5.797915532538480167e-03
-5.747039808863050117e-03
-5.703339343314252873e-03
-5.715236299999208042e-03
-5.754503490849917358e-03
-5.755457634693865454e-03
-5.705789034855082535e-03
-5.663380591563872517e-03
-5.676090033478497707e-03
-5.715787383336821438e-03
-5.717701305355708113e-03
-5.670550947134160059e-03
-5.632548620283397804e-03
-5.650944295242704175e-03
-5.696559526067762613e-03
-5.703792610309814035e-03
-5.660946160287688537e-03
-5.626137464332569595e-03
-5.646755251607011097e-03
-5.693771023471511442e-03
-5.701498926236734169e-03
-5.657997207022135225e-03
-5.621381625922811792e-03
-5.639655713042444896e-03
-5.684782717199320969e-03
-5.691598340684539577e-03
-5.647753651483688325e-03
-5.610472706540805925e-03
-5.627050299627314907e-03
-5.669344647383779169e-03
-5.672882577776061988e-03
-5.626463830389021384e-03
-5.588094201079046690e-03
-5.604989619309117335e-03
-5.648326364950958731e-03
-5.652888230111700538e-03
-5.607042567647869263e-03
-5.568804807621469816e-03
-5.585653579397655173e-03
-5.628919859235594590e-03
-5.633374380429381593e-03
-5.587394219210556692e-03
-5.548893938401812907e-03
-5.564856105131089567e-03
-5.606085698207898850e-03
-5.607549180045994473e-03
-5.558605230823417120e-03
-5.518245316607712017e-03
-5.533958758069943036e-03
-5.576247938894738319e-03
-5.579264637994350504e-03
-5.531753303207572262e-03
-5.492606284353188269e-03
-5.509225924443702550e-03
-5.551665789124111440e-03
-5.553719399168366259e-03
-5.504422880511597796e-03
-5.463555910584038007e-03
-5.479511987840277737e-03
-5.522957290909629065e-03
-5.527818293271799521e-03
-5.482896834569408497e-03
-5.447107735407077760e-03
-5.467120353568824184e-03
-5.511814918267955894e-03
-5.514665259520933581e-03
-5.465821634232023718e-03
-5.426285097012680317e-03
-5.443958478428529042e-03
-5.487369428035290125e-03
-5.488654097703470243e-03
-5.436979923383124073e-03
-5.393649385136834243e-03
-5.408064941800168855e-03
-5.450665504409969893e-03
-5.454768945899208382e-03
-5.408948440929471982e-03
-5.372154342041518885e-03
-5.391003557623525594e-03
-5.434256695994196459e-03
-5.435355824577152439e-03
-5.384401133088567541e-03
-5.342173501950242195e-03
-5.356548816451458563e-03
-5.396872684526834128e-03
-5.396585480724272639e-03
-5.345110564186011416e-03
-5.302324266091971126e-03
-5.315881811616209734e-03
-5.355501831539725456e-03
-5.353699309802795354e-03
-5.295038084790240976e-03
-5.229863376887135609e-03
-5.195351743194014105e-03
-5.157176820938387876e-03
-5.056563999032936269e-03
-4.901361810447731407e-03
-4.777716401225609588e-03
-4.764014287325281198e-03
-4.857084264351268534e-03
-5.001366601375192844e-03
-5.172826437720052205e-03
-5.397524449440593147e-03
-5.681110521598963306e-03
-5.955857281547625656e-03
-6.128786267295050459e-03
-6.172381779283480849e-03
-6.138660402828031125e-03
-6.080373054129247119e-03
-5.987112665824384505e-03
-5.820513106649036206e-03
-5.595593651603266404e-03
-5.391150003804597197e-03
-5.269572608276739019e-03
-5.212308035234200672e-03
-5.157119312763324727e-03
-5.085450208930600291e-03
-5.041468503425097954e-03
-5.060077636900915318e-03
-5.107002279844972091e-03
-5.116099963601808409e-03
-5.073598311995699585e-03
-5.033107463930071648e-03
-5.040242188247561102e-03
-5.070253801216114548e-03
-5.063787160912256759e-03
-5.010695853743626048e-03
-4.965598441589320552e-03
-4.973370499629697385e-03
-5.007613582047692330e-03
-5.007001395414170664e-03
-4.959406390173204913e-03
-4.918004412666541689e-03
-4.927428195041549074e-03
-4.961999631068465637e-03
-4.961071050840066589e-03
-4.912564318104693968e-03
-4.869209040607527100e-03
-4.875212916028346354e-03
-4.905048005892503026e-03
-4.898823520811736686e-03
-4.845281653894172209e-03
-4.797511348319305653e-03
-4.799484355605976652e-03
-4.825144600886469015e-03
-4.814252590951973755e-03
-4.755539352839969515e-03
-4.702374363566628676e-03
-4.699450120421428019e-03
-4.721750941821422319e-03
-4.709535129708610976e-03
-4.650883107087558192e-03
-4.598125305418891348e-03
-4.595915427843035202e-03
-4.620545391432420539e-03
-4.613694008047901536e-03
-4.563557299453274013e-03
-4.521479492299020249e-03
-4.531420816267596463e-03
-4.569832989277705128e-03
-4.578658699958217462e-03
-4.545599911737192682e-03
-4.520666560865162914e-03
-4.546374718882252933e-03
-4.598468797088314276e-03
-4.619105688947516310e-03
-4.596726903212710984e-03
-4.582121187693373628e-03
-4.618244648470798408e-03
-4.680757834507835030e-03
-4.711171545087400672e-03
-4.696747279606284554e-03
-4.686878315839478060e-03
-4.723554708413564389e-03
-4.782381915068199645e-03
-4.805704172866606498e-03
-4.782085677894025791e-03
-4.762090254615297669e-03
-4.788336805174039229e-03
-4.836775346057441138e-03
-4.850548790266993003e-03
-4.819652523378377754e-03
-4.795664892264575423e-03
-4.820479655307773233e-03
-4.867696554107897068e-03
-4.878166573261329651e-03
-4.841122571285217703e-03
-4.808846598364695767e-03
-4.824339944489034263e-03
-4.861894839960974324e-03
-4.862697542066187970e-03
-4.816483330535507694e-03
-4.776331221589620764e-03
-4.786051930104773082e-03
-4.820549697089209634e-03
-4.821040924018992792e-03
-4.776153376708897579e-03
-4.737105031064530423e-03
-4.746663823056632321e-03
-4.780499843987134206e-03
-4.781322103884280694e-03
-4.738042337563527079e-03
-4.700778546221889842e-03
-4.711793782326605118e-03
-4.748456554271834884e-03
-4.755979611126565608e-03
-4.722750895787258124e-03
-4.693861855136844709e-03
-4.706224816892163459e-03
-4.736722852733756504e-03
-4.734578154885126129e-03
-4.692194823298301287e-03
-4.656321931132617782e-03
-4.664680745572340886e-03
-4.695760059917835662e-03
-4.699817733879013346e-03
-4.667318298814357967e-03
-4.640775431332331592e-03
-4.654918601746776616e-03
-4.688587252022106446e-03
-4.694265399045352734e-03
-4.663824699535106498e-03
-4.639556865279882009e-03
-4.655666276982661778e-03
-4.691289964849251239e-03
-4.699279270139549401e-03
-4.670705034003172496e-03
-4.646520644596617740e-03
-4.660817765281033247e-03
-4.694017985505307550e-03
-4.700070447161954802e-03
-4.669876741373744401e-03
-4.643504513523979971e-03
-4.654788019581941952e-03
-4.685167073297163108e-03
-4.690005374324041944e-03
-4.660586036919074984e-03
-4.636085777219824816e-03
-4.649216186287336537e-03
-4.681024678573958951e-03
-4.687195041910768162e-03
-4.659332888461275440e-03
-4.636500968876786956e-03
-4.651098273929992616e-03
-4.683914305470925424e-03
-4.690245540805940833e-03
-4.661109941206417577e-03
-4.635333626317674968e-03
-4.646066681592873199e-03
-4.675443374136283199e-03
-4.679365543508898044e-03
-4.648211411512768489e-03
-4.620047506032262490e-03
-4.628314556668732503e-03
-4.656267076152066815e-03
-4.660654340816991134e-03
-4.631590462890307347e-03
-4.605876242787683254e-03
-4.615709449822381558e-03
-4.644078434781778557e-03
-4.648369657428306524e-03
-4.619350823897005673e-03
-4.593826474693780450e-03
-4.603566183518805095e-03
-4.631243501685890045e-03
-4.633957671007709646e-03
-4.601791241994813986e-03
-4.570887365863585995e-03
-4.573739014560363608e-03
-4.595662670383346415e-03
-4.596563063630930944e-03
-4.567046507022884567e-03
-4.541268901362954108e-03
-4.549204990308848215e-03
-4.574732841937891557e-03
-4.577167735329552498e-03
-4.546462006714914461e-03
-4.516313369769131211e-03
-4.517612035757131474e-03
-4.536615620806080940e-03
-4.534853836985424692e-03
-4.502629916641658590e-03
-4.472089268139274078e-03
-4.472241286469612852e-03
-4.488771459020648655e-03
-4.484108117998106616e-03
-4.449615300960852241e-03
-4.417236788088885549e-03
-4.413378389606455524e-03
-4.417179157639648975e-03
-4.380322644394927037e-03
-4.284050228173933925e-03
-4.159975495174140191e-03
-4.050677485714273413e-03
-3.967841730362123807e-03
-3.905846855841709278e-03
-3.885817802082809636e-03
-3.958956760309664639e-03
-4.155633974137064139e-03
-4.443642659040075368e-03
-4.750075543116639640e-03
-5.020818869156282345e-03
-5.243405505829151596e-03
-5.410829244640810026e-03
-5.487495287034660149e-03
-5.433382453423289855e-03
-5.256692144209651474e-03
-5.021226266801106543e-03
-4.793528883694908940e-03
-4.594584297636425570e-03
-4.412855348133066027e-03
-4.252655136970338000e-03
-4.146745752750744841e-03
-4.115245183649459369e-03
-4.130317918738717585e-03
-4.139959605896507792e-03
-4.123130654443171554e-03
-4.104039270261790676e-03
-4.108020470255879797e-03
-4.120846860192207452e-03
-4.107215284624480232e-03
-4.061421489376219190e-03
-4.018396061936016679e-03
-4.008564680228332913e-03
-4.018252484806295738e-03
-4.009819235441784528e-03
-3.973785865337864376e-03
-3.941346673846196809e-03
-3.940364862391200138e-03
-3.955994637017503854e-03
-3.950367573964617789e-03
-3.914241309596936357e-03
-3.879307540648869665e-03
-3.874225791081677833e-03
-3.885180243852823147e-03
-3.874994601058669511e-03
-3.834173252387465276e-03
-3.793554347595859844e-03
-3.781400524538923013e-03
-3.784424841104964965e-03
-3.766416815186445551e-03
-3.718584235339232082e-03
-3.671786055854318366e-03
-3.653622855165443266e-03
-3.650009583792283678e-03
-3.624416933655280355e-03
-3.568246048497263675e-03
-3.512925502204126017e-03
-3.487283638616070058e-03
-3.479179558421889237e-03
-3.453949983301342255e-03
-3.403822909922335754e-03
-3.359764822334681145e-03
-3.349306706291235811e-03
-3.358766998642527188e-03
-3.352059599776958249e-03
-3.320391721439190733e-03
-3.294353508781984723e-03
-3.301643152809950830e-03
-3.328963877924177254e-03
-3.340664733793896873e-03
-3.328390243320809329e-03
-3.323022121116700998e-03
-3.352188525765164347e-03
-3.402181539087625450e-03
-3.436913476049768823e-03
-3.447586319353626756e-03
-3.464107538104966959e-03
-3.512175658834036131e-03
-3.575519150960772188e-03
-3.616031629934802691e-03
-3.624659289123496973e-03
-3.632764686754491948e-03
-3.668087345572836402e-03
-3.716235106042456091e-03
-3.740793458632549542e-03
-3.734179973991792831e-03
-3.728578780627166828e-03
-3.751448048716167494e-03
-3.787392547563036681e-03
-3.799436908000228610e-03
-3.780435290433155782e-03
-3.763344650064528313e-03
-3.775785745857340552e-03
-3.801685354130867386e-03
-3.803355563300203808e-03
-3.773953320543713998e-03
-3.747599855295662315e-03
-3.752744095492625657e-03
-3.773221112443748970e-03
-3.770738261150241664e-03
-3.737825849936694984e-03
-3.708242032066641925e-03
-3.710582580259587804e-03
-3.729362248101762180e-03
-3.727037591217417355e-03
-3.696251654090595713e-03
-3.670033948138057712e-03
-3.675978561851490131e-03
-3.697957198796684823e-03
-3.698222870706257669e-03
-3.669380580245045018e-03
-3.644328368402512553e-03
-3.650444984410987706e-03
-3.671643352700751026e-03
-3.670726172341169571e-03
-3.641226233861393369e-03
-3.616945448070290822e-03
-3.625527381172460699e-03
-3.650230744644145792e-03
-3.652909593184836511e-03
-3.626546729662664514e-03
-3.604813370813263456e-03
-3.615596487455949738e-03
-3.642731893545631330e-03
-3.648373662476844109e-03
-3.624852443141412910e-03
-3.604476849147525853e-03
-3.614142397237309762e-03
-3.637954440733816297e-03
-3.639462106628538890e-03
-3.612637384374369712e-03
-3.590892266118556487e-03
-3.601236584678591847e-03
-3.626906971515953676e-03
-3.630309564027874285e-03
-3.604741458537809567e-03
-3.583482789594906633e-03
-3.593751898369101395e-03
-3.619085648806581561e-03
-3.621936446180459412e-03
-3.595392451253415049e-03
-3.572570333179519737e-03
-3.580720804680864386e-03
-3.603702189116847476e-03
-3.604585615808206939e-03
-3.577023619105176334e-03
-3.554183790327098726e-03
-3.562795572310904074e-03
-3.586064387604251131e-03
-3.586814389693080123e-03
-3.558987382691811835e-03
-3.536151679602936825e-03
-3.544942311129585348e-03
-3.567905753100666585e-03
-3.567403090748461070e-03
-3.537865642640193077e-03
-3.514017901031449894e-03
-3.523368413988094052e-03
-3.548638334900001187e-03
-3.551800511619394342e-03
-3.526370578955237076e-03
-3.505899474986754177e-03
-3.517230995791978052e-03
-3.543320410415877909e-03
-3.546850619575453271e-03
-3.521857596147278009e-03
-3.501768981800552037e-03
-3.512710860932547093e-03
-3.536905368949381373e-03
-3.536683297373221201e-03
-3.505986364576209498e-03
-3.478468010955824107e-03
-3.481257860753367208e-03
-3.498416320697857879e-03
-3.494302586143811350e-03
-3.464255505331522138e-03
-3.442081229514172471e-03
-3.453546014941632179e-03
-3.480157390901437737e-03
-3.483536952428180344e-03
-3.457235286615570162e-03
-3.434707445947162829e-03
-3.442472057320127184e-03
-3.463277727519119449e-03
-3.460081554734605307e-03
-3.427648017910574652e-03
-3.400320250912164388e-03
-3.405041593921083899e-03
-3.424525445462069887e-03
-3.421272854403232134e-03
-3.388974037983974365e-03
-3.359548880874758513e-03
-3.354792563025573750e-03
-3.348608650484620041e-03
-3.293384556857373476e-03
-3.178347056548068515e-03
-3.044143017257613330e-03
-2.937382436805678100e-03
-2.870306002675027720e-03
-2.838516153489482538e-03
-2.863363698844444399e-03
-2.990183933598107666e-03
-3.236232520811563491e-03
-3.554600116881397563e-03
-3.864952846733429089e-03
-4.115913426933605346e-03
-4.301814319259808853e-03
-4.420890076328033540e-03
-4.443335089225512909e-03
-4.339710461003642473e-03
-4.131297153712556493e-03
-3.889528970259922488e-03
-3.678241129278518075e-03
-3.508835700576486659e-03
-3.361089903363624187e-03
-3.235118444694515955e-03
-3.160761442403740590e-03
-3.153084305657705751e-03
-3.179872362702214871e-03
-3.190890076090357151e-03
-3.172519382504615602e-03
-3.154844599899507638e-03
-3.162547210323262640e-03
-3.177570264377451142e-03
-3.164220014445778047e-03
-3.120812676555978927e-03
-3.085139346317246345e-03
-3.084990586091955478e-03
-3.101551942863009156e-03
-3.095921316155862951e-03
-3.062279490740523087e-03
-3.034903527999743573e-03
-3.039951463484825978e-03
-3.058848834795234971e-03
-3.053574552541069194e-03
-3.018796043652256962e-03
-2.988859345996939393e-03
-2.990068199949382811e-03
-3.004311816253870879e-03
-2.994135670584044655e-03
-2.954565412442008206e-03
-2.920006852951648711e-03
-2.916619051226840113e-03
-2.926081103840168316e-03
-2.910731773610416347e-03
-2.865302177955030612e-03
-2.823721004051298316e-03
-2.811742644264919079e-03
-2.811188392130085836e-03
-2.785120201055455141e-03
-2.729139168555975384e-03
-2.678062188762945529e-03
-2.658868050394130270e-03
-2.654918585459907585e-03
-2.630490300938594008e-03
-2.581452710932232060e-03
-2.541854736950080462e-03
-2.537258122127705653e-03
-2.549559049450997403e-03
-2.541944277628647476e-03
-2.509627711283710268e-03
-2.486340761711613567e-03
-2.497532015370491128e-03
-2.525157157995694748e-03
-2.532976576324186442e-03
-2.517559285008112973e-03
-2.514229314224494284e-03
-2.549282835803033925e-03
-2.604234200911802796e-03
-2.641095705404579354e-03
-2.653705009805220998e-03
-2.674422956481312640e-03
-2.727186736708552602e-03
-2.792124326296972943e-03
-2.830907194032933078e-03
-2.838039166947302003e-03
-2.847200520406761338e-03
-2.883966528242971894e-03
-2.930424644731515187e-03
-2.950396787363057226e-03
-2.940144566943289628e-03
-2.934063896656798499e-03
-2.957230390086708956e-03
-2.990572225729990190e-03
-2.997118961927033691e-03
-2.973432696573821438e-03
-2.955000009345400917e-03
-2.967719589290296420e-03
-2.992496059381998322e-03
-2.991891973115864793e-03
-2.962190947620021476e-03
-2.939043792324968346e-03
-2.948795567398642542e-03
-2.972614825983721249e-03
-2.972718351217853473e-03
-2.944423482262253401e-03
-2.922173860386288822e-03
-2.931355339794354184e-03
-2.952847480050395899e-03
-2.949396533152646559e-03
-2.917299187068936664e-03
-2.891807685340129410e-03
-2.898701961914455696e-03
-2.919095699141071448e-03
-2.916160548527044639e-03
-2.886800421490840190e-03
-2.866408217553532891e-03
-2.879729735005866209e-03
-2.905997927389860659e-03
-2.906825122413291343e-03
-2.878606705698208770e-03
-2.857204456907573315e-03
-2.868464618729600797e-03
-2.892923113572267845e-03
-2.893128371123813557e-03
-2.865636463840634703e-03
-2.845808032753979668e-03
-2.858780698598048335e-03
-2.884536066070529300e-03
-2.885401747791986431e-03
-2.858094825694291845e-03
-2.838270426269783302e-03
-2.851043831474973662e-03
-2.876032139960992169e-03
-2.875392969094000845e-03
-2.846219735367850907e-03
-2.824830294616382902e-03
-2.836796121416961056e-03
-2.861716444082586935e-03
-2.861415439733416312e-03
-2.832720956980780153e-03
-2.811891825477072070e-03
-2.824467785902052414e-03
-2.849870696313439207e-03
-2.849751535707102136e-03
-2.821055996147803398e-03
-2.800207240243744473e-03
-2.812478639751715779e-03
-2.836913075632943853e-03
-2.835353082634515642e-03
-2.805474164135395021e-03
-2.784443101791677679e-03
-2.797808460934297827e-03
-2.824113373230316068e-03
-2.824134203603689743e-03
-2.794637924886735330e-03
-2.772696924768813884e-03
-2.784694883931054972e-03
-2.810331997870402741e-03
-2.810832185530092679e-03
-2.782271853122510359e-03
-2.760870948137901862e-03
-2.773462578919502590e-03
-2.801358005636688485e-03
-2.806450296533677651e-03
-2.783047943177553718e-03
-2.764602772620367976e-03
-2.777159212155894813e-03
-2.804087540278683583e-03
-2.809853808003417389e-03
-2.789289843673505975e-03
-2.774497829543902654e-03
-2.790465732285350633e-03
-2.820859124236213978e-03
-2.830575441077743011e-03
-2.813747941884464209e-03
-2.801267003292871698e-03
-2.817605727431857741e-03
-2.846521514993407588e-03
-2.852738523292411635e-03
-2.829935460447229826e-03
-2.809311249925945924e-03
-2.817102833176880500e-03
-2.839683113940913526e-03
-2.843866790728809702e-03
-2.823582748455877398e-03
-2.808021127059753298e-03
-2.820232345923395605e-03
-2.844084537645219339e-03
-2.845772502531985094e-03
-2.820312578073675466e-03
-2.798450017962761122e-03
-2.804126232752786330e-03
-2.821410483523923915e-03
-2.816732134725170866e-03
-2.785797569030474229e-03
-2.760250457308501947e-03
-2.764518312263397094e-03
-2.782205510626132791e-03
-2.778168796274844369e-03
-2.745023921291393082e-03
-2.708240715789351181e-03
-2.681999106264654643e-03
-2.639293797564868337e-03
-2.542780896196452679e-03
-2.398914955343569699e-03
-2.264298706603017075e-03
-2.196785382306302645e-03
-2.214147188012264254e-03
-2.306172806938544626e-03
-2.471732214598849463e-03
-2.720648999797367282e-03
-3.034212722283456676e-03
-3.344780463896273280e-03
-3.574754160187448675e-03
-3.693015593668155881e-03
-3.720529534070735750e-03
-3.683402569223660078e-03
-3.578798973058565369e-03
-3.397297857095199144e-03
-3.166135580151054410e-03
-2.947722724751646126e-03
-2.788468737053085775e-03
-2.682662388009272002e-03
-2.597843136991398981e-03
-2.525692864326925524e-03
-2.489275608784154159e-03
-2.499730588355832291e-03
-2.526703317212188309e-03
-2.527346560746233060e-03
-2.496146543600842593e-03
-2.467195962971560283e-03
-2.465186363931308553e-03
-2.471955858009056671e-03
-2.453689472663399523e-03
-2.410203806275142222e-03
-2.377405710142035857e-03
-2.378947352383972876e-03
-2.393796129800438745e-03
-2.384741688908260850e-03
-2.348785579269541991e-03
-2.320081279404240075e-03
-2.321774974952714454e-03
-2.333528324553510447e-03
-2.319354025282610240e-03
-2.277249002304787724e-03
-2.242019166195391693e-03
-2.237353138630470036e-03
-2.243583614753936941e-03
-2.225553762003345745e-03
-2.181733126794663247e-03
-2.146429535273148333e-03
-2.141920353986351364e-03
-2.146890679541144532e-03
-2.125149951718192324e-03
-2.075277082401166557e-03
-2.032541812330708464e-03
-2.020274620422451116e-03
-2.018037777995335558e-03
-1.990621591180564282e-03
-1.937727643830712033e-03
-1.895439518265340430e-03
-1.887167347551032366e-03
-1.891848176132105873e-03
-1.873349825100867252e-03
-1.830568237399240105e-03
-1.799024826403516127e-03
-1.801718370632386657e-03
-1.817425823366501398e-03
-1.810496333323970836e-03
-1.780915925527510203e-03
-1.765040901552455575e-03
-1.785626826850638532e-03
-1.820314822396183014e-03
-1.832353374755271627e-03
-1.821267612049455500e-03
-1.823344523144048877e-03
-1.861100069257241732e-03
-1.911596671978122016e-03
-1.937337473103763327e-03
-1.937054211042193823e-03
-1.946338864796320857e-03
-1.987464454801606516e-03
-2.037912802015606935e-03
-2.061040155832682356e-03
-2.056390061398963125e-03
-2.059848973793821595e-03
-2.093327849377038617e-03
-2.133844686606347490e-03
-2.145024814644797082e-03
-2.127576431185995275e-03
-2.118700214550722077e-03
-2.140893746952269618e-03
-2.170875456997713605e-03
-2.171753894047083553e-03
-2.144289753599206219e-03
-2.126365172500971693e-03
-2.141214628565397005e-03
-2.165883325660491153e-03
-2.163182630610725136e-03
-2.132858689610411806e-03
-2.111433338778599591e-03
-2.121253262725064821e-03
-2.139415726640153843e-03
-2.129434051969357564e-03
-2.091917798000426584e-03
-2.064354367686750853e-03
-2.070356555517852398e-03
-2.088423494593849659e-03
-2.082961502227211568e-03
-2.054260944326335905e-03
-2.037916406080422186e-03
-2.054473511891286106e-03
-2.079502347151557934e-03
-2.076047587753464523e-03
-2.045072271952445581e-03
-2.024212171201286280e-03
-2.036312519194425057e-03
-2.058701909115168149e-03
-2.055278949993264402e-03
-2.026812218550478727e-03
-2.009996081881886259e-03
-2.026732906659346831e-03
-2.053760495421757832e-03
-2.054356924924567295e-03
-2.028388134913772321e-03
-2.011851299274371174e-03
-2.026754452930162528e-03
-2.050651193392199947e-03
-2.047756546695412433e-03
-2.018651938741715651e-03
-1.999822115910012115e-03
-2.013416228285047193e-03
-2.036667254336496126e-03
-2.033255866597108615e-03
-2.003384441906047326e-03
-1.983493855554054486e-03
-1.996020627433008586e-03
-2.018612762943855152e-03
-2.015208100204691870e-03
-1.985907508932262949e-03
-1.966590419397598512e-03
-1.978961802391131838e-03
-2.000499212348595072e-03
-1.995852787622778412e-03
-1.966145161462183339e-03
-1.947793531933751134e-03
-1.962215766140998959e-03
-1.986026742274648108e-03
-1.983151027270672537e-03
-1.954672750293906178e-03
-1.937383589514777692e-03
-1.952725973196115048e-03
-1.976773161104808559e-03
-1.973058974118604980e-03
-1.943146868747747114e-03
-1.924806137510075635e-03
-1.939947761687104474e-03
-1.964350982660439254e-03
-1.961176744978474981e-03
-1.931991527242924323e-03
-1.914617289975094252e-03
-1.930742819457841909e-03
-1.955907680789763323e-03
-1.953303208092344555e-03
-1.924536973583660434e-03
-1.907048630946119950e-03
-1.921832966532005310e-03
-1.944157529037592340e-03
-1.937882519517404936e-03
-1.905795337065949863e-03
-1.886212091966267893e-03
-1.900466023451956917e-03
-1.923914850625611491e-03
-1.920537446847154920e-03
-1.893199359996031172e-03
-1.879729446955409437e-03
-1.899943909462974839e-03
-1.926976334434314393e-03
-1.922934734092615746e-03
-1.890321102553345518e-03
-1.868665141694563674e-03
-1.880952525471487691e-03
-1.903303431466521868e-03
-1.898904728929473726e-03
-1.868847714030655001e-03
-1.849860670387302791e-03
-1.862665951979796536e-03
-1.882801357453005048e-03
-1.874266418235290450e-03
-1.839164943206955801e-03
-1.813700330511087153e-03
-1.814451749280092310e-03
-1.808134749957910096e-03
-1.747900120940542451e-03
-1.630485369208104721e-03
-1.500730796246800731e-03
-1.401528460609828683e-03
-1.340440074523698878e-03
-1.315539274208125291e-03
-1.354843452167778153e-03
-1.504102614643460477e-03
-1.771528491224066276e-03
-2.100725890882685666e-03
-2.410993998798969043e-03
-2.657484606291936682e-03
-2.837828672132643518e-03
-2.946731075607858692e-03
-2.951425313632767902e-03
-2.827232213403467042e-03
-2.604093203147065608e-03
-2.355958257107586967e-03
-2.140569991230835845e-03
-1.963521844895862664e-03
-1.807411257893102360e-03
-1.680215108308504186e-03
-1.614003010482502809e-03
-1.616898707382876527e-03
-1.648763821574906986e-03
-1.659510685380019557e-03
-1.641768545755118011e-03
-1.628231051915471437e-03
-1.638774883490528309e-03
-1.650309785740297457e-03
-1.629624477563981289e-03
-1.582127730487986085e-03
-1.547546045221956075e-03
-1.547468484685961265e-03
-1.557133161768977812e-03
-1.540566796511061475e-03
-1.500607627149614515e-03
-1.474812948611325600e-03
-1.482921536069035408e-03
-1.498569245754392040e-03
-1.484514453845130894e-03
-1.442955333131991065e-03
-1.411644847194767124e-03
-1.411362909960146503e-03
-1.417336917294630821e-03
-1.393799828050682529e-03
-1.343841246791690515e-03
-1.305579095328664521e-03
-1.299817597690153433e-03
-1.301661559968259659e-03
-1.275216978955196444e-03
-1.223227518065424235e-03
-1.183066963862586078e-03
-1.174793321460114535e-03
-1.173273817687181704e-03
-1.142985183805921012e-03
-1.087437574712273557e-03
-1.044782098912093102e-03
-1.035570801724907362e-03
-1.035014653480230765e-03
-1.008085861009489111e-03
-9.589250415982263943e-04
-9.260611009751134118e-04
-9.296957545728476956e-04
-9.439187573243258342e-04
-9.323777160940693171e-04
-8.982430803219313559e-04
-8.796356283193758341e-04
-8.969872734074409160e-04
-9.250951713454802494e-04
-9.284394450713830474e-04
-9.109261315346024908e-04
-9.110348370265889013e-04
-9.488989620463380951e-04
-9.985928625153303942e-04
-1.023852333356218072e-03
-1.027666615828747368e-03
-1.047012191881155872e-03
-1.100044628305952080e-03
-1.159173434676380281e-03
-1.187562846664351555e-03
-1.188770165709330823e-03
-1.201013959286135243e-03
-1.243967375639120840e-03
-1.291454011871614842e-03
-1.307522745060204269e-03
-1.295975951296135173e-03
-1.295002616749872486e-03
-1.324414240032492033e-03
-1.358355883704482747e-03
-1.361077029852684160e-03
-1.336357287649910658e-03
-1.322336544880244567e-03
-1.339057591513894557e-03
-1.361429061388695280e-03
-1.354816050901700829e-03
-1.323730783395647356e-03
-1.306043264487346742e-03
-1.320701145206511391e-03
-1.341429891758567916e-03
-1.332934061737397341e-03
-1.299791566030016488e-03
-1.280462730739504069e-03
-1.294513135159708686e-03
-1.315894674719246364e-03
-1.309036408289716673e-03
-1.277856150221948987e-03
-1.260116697148488171e-03
-1.275100752436921295e-03
-1.297059988460451223e-03
-1.291002626345824026e-03
-1.261142784608811334e-03
-1.245009551685563598e-03
-1.261499028935102271e-03
-1.284760955249025088e-03
-1.279985825611130654e-03
-1.251610386580464043e-03
-1.237053452864639996e-03
-1.254561035215916512e-03
-1.277689909446494930e-03
-1.271912780148688749e-03
-1.242647479218188071e-03
-1.228241852221493603e-03
-1.247485280124063269e-03
-1.273962426542071206e-03
-1.272521298133573800e-03
-1.247547040595738468e-03
-1.236422803017184907e-03
-1.257269931287989528e-03
-1.283311253248738040e-03
-1.279381406473524552e-03
-1.250331672261638643e-03
-1.234508775192979732e-03
-1.251169016037567867e-03
-1.274368173946370010e-03
-1.269190510188445212e-03
-1.240096627443611384e-03
-1.224645053761257932e-03
-1.241471868982207440e-03
-1.264606742572482387e-03
-1.259588323519336608e-03
-1.231266469313057992e-03
-1.216994682287703654e-03
-1.234693063113575379e-03
-1.257811979913600088e-03
-1.251893743949205207e-03
-1.222341635126195612e-03
-1.207229976653294463e-03
-1.224760694441548621e-03
-1.248117430750560631e-03
-1.242773698025746547e-03
-1.214912497159996614e-03
-1.204205941037372884e-03
-1.230780484952094436e-03
-1.268954315198128971e-03
-1.283135438275306156e-03
-1.275623504385065433e-03
-1.279924232449111601e-03
-1.309399489845698011e-03
-1.333821981428538490e-03
-1.317853679142590162e-03
-1.269215486577541033e-03
-1.229951129771681643e-03
-1.222116059216632120e-03
-1.221878665058506556e-03
-1.196601979811364250e-03
-1.152823275640323802e-03
-1.128517907442486493e-03
-1.140447688683352695e-03
-1.159837364173512027e-03
-1.150586964042837630e-03
-1.117764794951648169e-03
-1.099637489464652933e-03
-1.114211192427817972e-03
-1.134048656163488909e-03
-1.124072917360580560e-03
-1.090105495990256312e-03
-1.071198020630811931e-03
-1.086513472485087402e-03
-1.109793476705384346e-03
-1.105921728984408589e-03
-1.078895246751599910e-03
-1.065502519701501741e-03
-1.084072358815340448e-03
-1.109158517159587569e-03
-1.106674939431150258e-03
-1.080617953935411428e-03
-1.066828402422086673e-03
-1.082685044836801270e-03
-1.102635001358284825e-03
-1.093619391584560018e-03
-1.061562809921407988e-03
-1.044576079794698811e-03
-1.061834602334218308e-03
-1.088058512322722261e-03
-1.088166785164647928e-03
-1.064316914877518408e-03
-1.051227786032549009e-03
-1.067099684944623761e-03
-1.088178288447890114e-03
-1.081804751010429638e-03
-1.048427296028922942e-03
-1.010050324886511974e-03
-9.720290323852577921e-04
-9.276250558233698623e-04
-8.916496970026053723e-04
-8.963535794174583640e-04
-9.479232088019850719e-04
-1.006763045402784759e-03
-1.023436438858531944e-03
-9.856915860546756197e-04
-9.174963947948663531e-04
-8.373917832817309725e-04
-7.376885093954886966e-04
-6.147922057267549319e-04
-5.077409388238585120e-04
-4.850836496304916298e-04
-5.869842409599304242e-04
-7.927185076446923231e-04
-1.051308597186868463e-03
-1.329482527968028557e-03
-1.614929189918763199e-03
-1.880049959667061919e-03
-2.066703238801782631e-03
-2.123433932353055963e-03
-2.052270804235027668e-03
-1.903629878387493816e-03
-1.724467006430004026e-03
-1.526504036287623656e-03
-1.311120610839959164e-03
-1.107595047520155626e-03
-9.642218750493519036e-04
-9.003371714995174642e-04
-8.847458219539338850e-04
-8.724915142611549060e-04
-8.533904138394669131e-04
-8.500324282911904047e-04
-8.720429669885607950e-04
-8.923434568821300879e-04
-8.789261670704476802e-04
-8.376519487936985760e-04
-8.056921889492475210e-04
-8.032421663137362389e-04
-8.089312339695036401e-04
-7.918678749058664229e-04
-7.555568336651561148e-04
-7.330913144364143569e-04
-7.405958259211267714e-04
-7.537182036347765852e-04
-7.401222996309369910e-04
-7.033812854237465884e-04
-6.778046835282823188e-04
-6.814054789823801792e-04
-6.916298003983682718e-04
-6.767493927285392862e-04
-6.392655709160054156e-04
-6.116380690095774182e-04
-6.108002444723311525e-04
-6.145498832691850474e-04
-5.921996796180708719e-04
-5.469918027115102527e-04
-5.117396846628105914e-04
-5.036743027860487998e-04
-5.007743614657386884e-04
-4.723082688146461663e-04
-4.215122693917322007e-04
-3.815358907929668544e-04
-3.702577737589897444e-04
-3.662657803454000098e-04
-3.390268571709406480e-04
-2.915872898322062479e-04
-2.569906626709145790e-04
-2.534851662434091379e-04
-2.602609991961173444e-04
-2.467318663820355917e-04
-2.145634237414369844e-04
-1.948789641496853284e-04
-2.052980367367937542e-04
-2.261677054451517212e-04
-2.282211009154060458e-04
-2.131806821913458279e-04
-2.114087214306159361e-04
-2.400503188241375624e-04
-2.793711709852151823e-04
-2.996868266043266164e-04
-3.017533332912171982e-04
-3.152736610347035666e-04
-3.577276277950567837e-04
-4.099359428516632237e-04
-4.416297626368558167e-04
-4.517870321159491581e-04
-4.685468974356546759e-04
-5.092669442866566525e-04
-5.558792192187555700e-04
-5.792377302503239934e-04
-5.786591814276129814e-04
-5.823265714231312326e-04
-6.083684048662418506e-04
-6.403043194328069884e-04
-6.503751171600042659e-04
-6.382399919219860357e-04
-6.314634261467460055e-04
-6.471436170216054475e-04
-6.680623219308149882e-04
-6.668346879194573390e-04
-6.446885244378109184e-04
-6.306136908772411870e-04
-6.415578133539749477e-04
-6.588975983447455803e-04
-6.541293430819593649e-04
-6.283608450676795784e-04
-6.108256425233046967e-04
-6.184298493535260802e-04
-6.325803690444406144e-04
-6.256113995592241239e-04
-6.000728431221299432e-04
-5.859467104062121047e-04
-5.992021498272509343e-04
-6.192161529614344413e-04
-6.168139126085997112e-04
-5.943255208796594316e-04
-5.820207907934367431e-04
-5.956951376751180860e-04
-6.142726162135020082e-04
-6.088587455449728618e-04
-5.833036408464985570e-04
-5.697438271639416671e-04
-5.846406197540345365e-04
-6.059890888490911988e-04
-6.035050257729222649e-04
-5.801903136710014584e-04
-5.677620586202148864e-04
-5.824049149161687755e-04
-6.022265662487228007e-04
-5.976198029822256050e-04
-5.724351681736664435e-04
-5.588654886850494274e-04
-5.731571700363386618e-04
-5.934365098118096586e-04
-5.900854997020594205e-04
-5.665592757222665324e-04
-5.543758247981982364e-04
-5.693659137902752805e-04
-5.897007380229694201e-04
-5.860489530782062376e-04
-5.622018126410360805e-04
-5.500595263366759441e-04
-5.658095918399516297e-04
-5.876375231233031508e-04
-5.857184725914918108e-04
-5.631551616501538453e-04
-5.514406663802593964e-04
-5.669456314534378379e-04
-5.885580129501347645e-04
-5.870022759998402666e-04
-5.650659665794809626e-04
-5.532965822313564395e-04
-5.674523930714178363e-04
-5.867226313869470904e-04
-5.828032439667051381e-04
-5.593795255042009577e-04
-5.471024046640486291e-04
-5.609572039154651912e-04
-5.792420394439019155e-04
-5.736074651683429303e-04
-5.487932732046664659e-04
-5.367028723370116661e-04
-5.523349829565007280e-04
-5.723737551769749257e-04
-5.665093983406727096e-04
-5.386292485059060615e-04
-5.210725401380081334e-04
-5.299462215250694448e-04
-5.433430855169918763e-04
-5.325037330504551157e-04
-5.025685306799506161e-04
-4.863101023536526776e-04
-4.993979969866728548e-04
-5.189636539728835485e-04
-5.150682308834443439e-04
-4.916355490274938560e-04
-4.803287889179851111e-04
-4.960911708889615551e-04
-5.162310692534478364e-04
-5.120510024078954101e-04
-4.890263311878857537e-04
-4.797557395541619460e-04
-4.992674376193932673e-04
-5.243675750101857089e-04
-5.256625567999556256e-04
-5.080570374085837358e-04
-5.037467200136496251e-04
-5.274349110597148851e-04
-5.556876493514060003e-04
-5.590608468678038602e-04
-5.426449077560176019e-04
-5.387679034577035064e-04
-5.618568389665293955e-04
-5.881289645581857552e-04
-5.884623395236467103e-04
-5.689661580975148569e-04
-5.628150088386029565e-04
-5.842955329924022501e-04
-6.086267960989672626e-04
-6.056992758059886323e-04
-5.811737512778610351e-04
-5.681640957936901631e-04
-5.812685502671944594e-04
-5.967383388784611858e-04
-5.861329225161386255e-04
-5.567775680899583746e-04
-5.428388190188864794e-04
-5.588396833251653255e-04
-5.794916416055426872e-04
-5.737697038389871079e-04
-5.464358257563075791e-04
-5.301441477914953758e-04
-5.396463289664412896e-04
-5.515877033746207844e-04
-5.374800718215321307e-04
-5.038004243481694448e-04
-4.835919844713111246e-04
-4.912803702443457876e-04
-5.032890649378290657e-04
-4.912124565718449867e-04
-4.613290839380387170e-04
-4.449839465512674119e-04
-4.516859848374956896e-04
-4.485043603579168606e-04
-3.953848255428930869e-04
-2.920309743406493755e-04
-1.771192414374996547e-04
-8.538906066322005800e-05
-2.446247401888647713e-05
-8.052413427968654891e-07
-4.892416527426789868e-05
-2.113082725682330701e-04
-4.874977876338812237e-04
-8.173239495457597370e-04
-1.124023382966011803e-03
-1.367693205154264357e-03
-1.546437191013016500e-03
-1.654033499271556022e-03
-1.661407384613889076e-03
-1.551123026040305934e-03
-1.355237900220574755e-03
-1.139358630811342435e-03
-9.487284843997644684e-04
-7.836450871135242080e-04
-6.313670397309059309e-04
-5.057222978264988220e-04
-4.378083212522661423e-04
-4.314949565918410439e-04
-4.482806962368825025e-04
-4.465379189229272232e-04
-4.247114118163413700e-04
-4.117359063308904249e-04
-4.196877373479758304e-04
-4.241912695136019519e-04
-3.984909350462470697e-04
-3.525369734839337368e-04
-3.218043367577646564e-04
-3.205794202256208834e-04
-3.237854949040570168e-04
-3.022235265712209899e-04
-2.627042175165853616e-04
-2.380868650169866256e-04
-2.414420751761072251e-04
-2.477539456531715166e-04
-2.282550002554199417e-04
-1.898750648696369454e-04
-1.655434833039205224e-04
-1.689198438410716846e-04
-1.757688275034713192e-04
-1.573415614878753699e-04
-1.195918430835578826e-04
-9.420531897698543322e-05
-9.414412244956827866e-05
-9.542369181806580405e-05
-7.043154005521032671e-05
-2.648847788098030592e-05
4.144758985850493377e-06
9.125367202841069142e-06
1.329175432843252708e-05
4.396836174084140653e-05
9.232186231775954197e-05
1.246118534074269237e-04
1.281540567642687478e-04
1.285076324672742264e-04
1.537817548634937311e-04
1.952241173430947947e-04
2.187246268118871184e-04
2.114980695812240970e-04
1.995195979573884636e-04
2.115365580751659563e-04
2.392976620040091970e-04
2.490087243409880129e-04
2.281588426077340269e-04
2.028227034460545163e-04
2.014410266739921282e-04
2.153239995390781453e-04
2.106669677065212305e-04
1.755031311972393010e-04
1.365146322097358575e-04
1.222364403272867446e-04
1.236868826519450446e-04
1.071529559757617746e-04
6.150859875760300924e-05
1.461998666784465259e-05
-3.932962192916382438e-06
-2.538727095833040459e-06
-1.509800900433618670e-05
-5.365068519319398863e-05
-9.137988491130779808e-05
-9.944682432047949328e-05
-8.664507346352367037e-05
-8.710455165055136853e-05
-1.132758743215074755e-04
-1.391187480915276678e-04
-1.365584270867541486e-04
-1.147262164907202064e-04
-1.076138795833765129e-04
-1.271675312333464536e-04
-1.467504610701995602e-04
-1.379606444450124508e-04
-1.098908945440981583e-04
-9.650042122833369512e-05
-1.096928780403303230e-04
-1.230820422139303205e-04
-1.088131241537468839e-04
-7.642510822738948079e-05
-5.999149508367470143e-05
-7.128880263590096564e-05
-8.373587214492977243e-05
-6.935244474992347669e-05
-3.755860970191529299e-05
-2.215882075316203542e-05
-3.465254374425711867e-05
-4.841744462090718376e-05
-3.557606894048163243e-05
-5.554595507802854298e-06
8.039557263218692629e-06
-5.871844092905122159e-06
-2.021729652598421370e-05
-7.158643176733824748e-06
2.313002667174565360e-05
3.611647317139712876e-05
2.024661754733122002e-05
2.665012352647336269e-06
1.166226422971228596e-05
3.768841557034432674e-05
4.673573061055296546e-05
2.754339321281613906e-05
7.387056419209774016e-06
1.463244427401437855e-05
3.990449442107472239e-05
4.953864727797949175e-05
3.238175100100677134e-05
1.496212261514924535e-05
2.414456162926634578e-05
4.923443982333053012e-05
5.624880012809361715e-05
3.484746208135122356e-05
1.299907598186844995e-05
1.881530984261916076e-05
4.218462459192832276e-05
4.920414854292856632e-05
2.943022409614831636e-05
1.063035368629354840e-05
2.051775857876345088e-05
4.834751069644586952e-05
5.946112733166844869e-05
4.265503537054064764e-05
2.512293571428842257e-05
3.455509628528044552e-05
6.091295880328523663e-05
7.060727207391535518e-05
5.312841329576127244e-05
3.557436708734752068e-05
4.520243384995275421e-05
7.185670249016664832e-05
8.204249543798365976e-05
6.516202036971688316e-05
4.808867838669529313e-05
5.783905407761831888e-05
8.401642939685457015e-05
9.313169124878757990e-05
7.502062104001398085e-05
5.719322271978541025e-05
6.721878037348324661e-05
9.498370882113837607e-05
1.067617758625460066e-04
9.154829799959407488e-05
7.572515611503887606e-05
8.594727755231214295e-05
1.118507482028808717e-04
1.202892319309973972e-04
1.013022947710770678e-04
8.211036551616663487e-05
8.964097140881166839e-05
1.134474436591792999e-04
1.203837169156734763e-04
1.007663060124289016e-04
8.223026558186246823e-05
9.201518235360832063e-05
1.196902670402072086e-04
1.316639181682343306e-04
1.172479564041672452e-04
1.025928563489777144e-04
1.133097287951477343e-04
1.379241759300480798e-04
1.433163798270366794e-04
1.209904790508290265e-04
9.998208767739375294e-05
1.081063807726028586e-04
1.346709599323579233e-04
1.458747768582741543e-04
1.315227779431866681e-04
1.186110827660243061e-04
1.331734889617945498e-04
1.634771867933693806e-04
1.757021522962422602e-04
1.604086217091675592e-04
1.454344904833308749e-04
1.572036833499147052e-04
1.841776829312759788e-04
1.939945586645801592e-04
1.821787280563980094e-04
1.862213846912678591e-04
2.443307762506198404e-04
3.516396322172906166e-04
4.689085073087888127e-04
5.669345758248941179e-04
6.424322484603253031e-04
6.857972697499924511e-04
6.556323286419315534e-04
5.081264304146694208e-04
2.496252498208817103e-04
-5.582720127760010254e-05
-3.366779125199971349e-04
-5.624640918904886405e-04
-7.355964264657895851e-04
-8.469925539817220114e-04
-8.631203112465083739e-04
-7.648810732319303099e-04
-5.834209117364769735e-04
-3.802544053823461896e-04
-1.947679558408636942e-04
-2.564430369862745820e-05
1.346465359851572834e-04
2.653593699699151147e-04
3.336132745467815415e-04
3.388595620481527591e-04
3.217855221148754191e-04
3.214217046965386557e-04
3.357276398843599824e-04
3.369061765613268547e-04
3.182476375998737408e-04
3.073350802950285988e-04
3.282470044983923710e-04
3.665228832587649407e-04
3.866713440086265961e-04
3.789282799303498976e-04
3.711980449814010832e-04
3.897698687116567424e-04
4.229832410191721077e-04
4.378009097838254406e-04
4.260669370431901214e-04
4.163424117588012015e-04
4.347954263484886048e-04
4.692182913460514297e-04
4.860673313363678139e-04
4.770642274737140441e-04
4.708794348630405448e-04
4.935304574353225303e-04
5.323164566559015869e-04
5.533666559881266801e-04
5.485570474365176856e-04
5.468121647966383940e-04
5.740228984741392593e-04
6.171450391552952587e-04
6.422060975837247214e-04
6.412106730328977731e-04
6.431570386470366295e-04
6.739086218292954927e-04
7.203408542491981578e-04
7.483273335696003468e-04
7.496405928844474681e-04
7.529556514642280797e-04
7.837057340452872195e-04
8.281805626070407912e-04
8.514567479197478368e-04
8.445556212602952501e-04
8.359378104277758077e-04
8.515506161706504901e-04
8.788416702032249457e-04
8.845216967644587217e-04
8.611448718676023052e-04
8.378003296461876068e-04
8.400103024696530321e-04
8.544003929451490266e-04
8.471634781982663107e-04
8.107171346196616335e-04
7.739861067777532508e-04
7.621876982635759738e-04
7.619208010643196104e-04
7.399691045373787968e-04
6.899381281644748759e-04
6.423938302470614224e-04
6.243262460886972974e-04
6.235296570594097559e-04
6.066843869675167533e-04
5.660504743389832560e-04
5.304474296677985992e-04
5.254009437238079533e-04
5.376413714615214251e-04
5.331479074317732603e-04
5.037149812759603856e-04
4.776988669471069100e-04
4.803675964129678309e-04
4.989969290268283716e-04
5.009441340744560933e-04
4.794187127140584620e-04
4.632761966098615167e-04
4.768716394902535252e-04
5.056296452495643440e-04
5.153260184084275386e-04
4.985557966869806276e-04
4.843588263585482667e-04
4.978341545343895752e-04
5.255000732908221214e-04
5.341355504068596646e-04
5.170004155822614106e-04
5.034779796074416100e-04
5.185932393896243615e-04
5.484598962634630245e-04
5.595836216767072907e-04
5.452859410052797277e-04
5.350044602027313398e-04
5.534167725617152728e-04
5.859598596067569151e-04
5.985822368667998924e-04
5.843410146886113786e-04
5.725298636037809419e-04
5.879054666149117515e-04
6.164850166427227399e-04
6.251584287896676251e-04
6.078313049682022504e-04
5.942461292417250580e-04
6.091651288673994441e-04
6.382442261528118062e-04
6.477611972626391192e-04
6.309939962061716402e-04
6.172347668127655534e-04
6.309362541354781966e-04
6.577113439060243774e-04
6.643252302327949665e-04
6.447519863473573538e-04
6.285976420846426695e-04
6.403296441786446996e-04
6.656931209752105054e-04
6.717708678885252888e-04
6.529060863548689746e-04
6.387706868428511334e-04
6.531145921848165864e-04
6.803651252879983416e-04
6.865327042283810195e-04
6.657581770786237009e-04
6.484813460956835932e-04
6.598632886786232228e-04
6.856657088987598049e-04
6.924915064967893281e-04
6.741687273726561930e-04
6.602108423501623288e-04
6.748729013685340374e-04
7.035420998415305854e-04
7.127392452611876553e-04
6.959467090451140932e-04
6.820083145886147134e-04
6.945251263179366696e-04
7.187609702279124796e-04
7.222036609139136955e-04
7.002471123654149116e-04
6.835359099966443162e-04
6.963776314615655223e-04
7.234563925397128996e-04
7.309446768090418350e-04
7.129870430883714083e-04
6.994312082755230545e-04
7.141942656205858830e-04
7.419642515796888438e-04
7.491973082174646290e-04
7.301996680926484302e-04
7.147119664304858039e-04
7.265971462851392171e-04
7.508577569030130960e-04
7.546365633562092737e-04
7.329172340125129567e-04
7.156130837431664074e-04
7.263317295714698425e-04
7.499869978006092931e-04
7.540502512176838409e-04
7.339681666166256516e-04
7.199265747744533657e-04
7.354481314368649554e-04
7.648127956317546210e-04
7.740879017726020293e-04
7.568033619504725348e-04
7.416180793248690339e-04
7.517735611823504402e-04
7.728796714720504585e-04
7.737442096950484724e-04
7.510268822837626659e-04
7.354646005379773289e-04
7.504419292589099670e-04
7.798955708074994247e-04
7.900709347868689267e-04
7.752541356950215859e-04
7.646749789350809103e-04
7.814443792263474353e-04
8.104568080306625427e-04
8.194910763576999935e-04
8.041210286168620075e-04
7.942719636289037079e-04
8.133537933067433792e-04
8.474007408122334953e-04
8.686830526431050213e-04
8.819471928996069909e-04
9.273793834923384563e-04
1.031361893658606487e-03
1.167760476635291457e-03
1.279060682689958650e-03
1.326786004576047378e-03
1.307067499545470392e-03
1.221339733520067274e-03
1.053149173275296641e-03
7.900171530061863429e-04
4.631648739787871949e-04
1.460960823413876876e-04
-9.532295020358650187e-05
-2.415167197699062164e-04
-3.024114868436910547e-04
-2.769882723575867178e-04
-1.494414659281529875e-04
7.283385811689482847e-05
3.358019008811740681e-04
5.699870423320754428e-04
7.429940599672901075e-04
8.694137249134524861e-04
9.694224486696575820e-04
1.034496785938639023e-03
1.045457330744882507e-03
1.013340060305370667e-03
9.815223433192804200e-04
9.818208378142880000e-04
1.002604115860753972e-03
1.012023305063574144e-03
1.004424730298198939e-03
1.006926490493286613e-03
1.038597814559256028e-03
1.080317463827444244e-03
1.098205082376552295e-03
1.088717222371820507e-03
1.083103533571268956e-03
1.104596663395874916e-03
1.137058076934695412e-03
1.148183766673171232e-03
1.134999858257036004e-03
1.128712743751631060e-03
1.152066690725110556e-03
1.188224032054498690e-03
1.204357130559411890e-03
1.197220182201060804e-03
1.197526220640595176e-03
1.226990167806764863e-03
1.267764715349831671e-03
1.286789310366065735e-03
1.281359230486475102e-03
1.283156936227257752e-03
1.315184917473191661e-03
1.360816352429188632e-03
1.387363234907199559e-03
1.391308386045432555e-03
1.402764885090394126e-03
1.443083246293256575e-03
1.494308527639038545e-03
1.522799037738288216e-03
1.524346539623377440e-03
1.528567251928810919e-03
1.556678040257756471e-03
1.591410331284096209e-03
1.600959774376479496e-03
1.583697165683518784e-03
1.571395066697307569e-03
1.585951887922549229e-03
1.609281985527753756e-03
1.608096620044102264e-03
1.579344373308004187e-03
1.553674679276367473e-03
1.552269272558974740e-03
1.556931231503019993e-03
1.534929298420596375e-03
1.484245840414974080e-03
1.436856170976628499e-03
1.415582032348305756e-03
1.404173895932679487e-03
1.371734431986502013e-03
1.317234491758965606e-03
1.272343357763593922e-03
1.258399395579195591e-03
1.257025585966594847e-03
1.235381283838925259e-03
1.191310865912333702e-03
1.156013507437101025e-03
1.150609206269459332e-03
1.156896161251752542e-03
1.142801592024025870e-03
1.107210600474064534e-03
1.082195606957246821e-03
1.089297691960976720e-03
1.109976529835392939e-03
1.110965467820395920e-03
1.089568007244140144e-03
1.076552184359819662e-03
1.092777216805186288e-03
1.119723106222791399e-03
1.124738512803935726e-03
1.105926351613679276e-03
1.094501563496473769e-03
1.111219489224476564e-03
1.137394270033049645e-03
1.140919972335131469e-03
1.121151292886374360e-03
1.110265081831158206e-03
1.128839693517865936e-03
1.157076097538539683e-03
1.161649014712708324e-03
1.141145815864256022e-03
1.127589496126532240e-03
1.142076541225247027e-03
1.165770363280179377e-03
1.166221409246158934e-03
1.142498082946666934e-03
1.126762322541305199e-03
1.140114973893544600e-03
1.163804273982996500e-03
1.165356986785697629e-03
1.143206418502210660e-03
1.128359759571245097e-03
1.140999660121689262e-03
1.162261846832262670e-03
1.160450821018747282e-03
1.135355664678187708e-03
1.119144877910216614e-03
1.132166493821104222e-03
1.154745988297641197e-03
1.154278006030902675e-03
1.130282610393051890e-03
1.115199277112278314e-03
1.129662471779778032e-03
1.153980818730086962e-03
1.155157351507486718e-03
1.132094506477754857e-03
1.116801423885511058e-03
1.130067789357953358e-03
1.152998912935467805e-03
1.153702860461064753e-03
1.131818706255871207e-03
1.119056658197340164e-03
1.134924497803561222e-03
1.159201839413323901e-03
1.159627827733687461e-03
1.136544173704618580e-03
1.122689643724753255e-03
1.138125128531266607e-03
1.162479567142908274e-03
1.163069545144698562e-03
1.140166304795315472e-03
1.126824652414344131e-03
1.143192597798701506e-03
1.168518756067383514e-03
1.169828979889152819e-03
1.147510748295301614e-03
1.134725939227878254e-03
1.151489197491571172e-03
1.176972277670585397e-03
1.178290075729371798e-03
1.155819490568797160e-03
1.142443160937777358e-03
1.157787226711804677e-03
1.180893356456638212e-03
1.179294528552952710e-03
1.154267637597398109e-03
1.139574366468766326e-03
1.154951026775267314e-03
1.178494525710695011e-03
1.176552836311363023e-03
1.150152074267375875e-03
1.133929589106131165e-03
1.149003513443914992e-03
1.174873199926101605e-03
1.178662661987916332e-03
1.160488030638343743e-03
1.152247157914599706e-03
1.171932555840010833e-03
1.197251273678106090e-03
1.195680237153378712e-03
1.169531527145930769e-03
1.153531895329702045e-03
1.167913553801333375e-03
1.191555835893740034e-03
1.191998344006063755e-03
1.170661581085361176e-03
1.160907357238945108e-03
1.181629198841079031e-03
1.210657514570646041e-03
1.214908335550089671e-03
1.195686232191869522e-03
1.186730199975157950e-03
1.207496200517915383e-03
1.236179826668027879e-03
1.240440412514709663e-03
1.224610139624744166e-03
1.229566404865104629e-03
1.285471175949554241e-03
1.379908510040285183e-03
1.480149893914826757e-03
1.573384955499174294e-03
1.665755751144188182e-03
1.741640323430061407e-03
1.746664646345885436e-03
1.629318310336303789e-03
1.393118764831568785e-03
1.094355876799342746e-03
7.910935782067928662e-04
5.086366802220685865e-04
2.596207123087977860e-04
8.080328729599380380e-05
2.505703193705433388e-05
1.109321536537106329e-04
2.965631999683315118e-04
5.160496455279923664e-04
7.332846555312072870e-04
9.471713039699938309e-04
1.150558123742718639e-03
1.307653925909583147e-03
1.385349859669638556e-03
1.395319399410860188e-03
1.386111997099126122e-03
1.391536181502920407e-03
1.401692829405661728e-03
1.392619201612264532e-03
1.370757818052409892e-03
1.369827150160321354e-03
1.405013974352285581e-03
1.449436469115855664e-03
1.467296114193083686e-03
1.459516542943611189e-03
1.459886756605410785e-03
1.487168570659151527e-03
1.519217295535589714e-03
1.524562062475283766e-03
1.507154852607402781e-03
1.502051044832992260e-03
1.527744757074360818e-03
1.561119679861952027e-03
1.569805000384046599e-03
1.557043277171389281e-03
1.556920370817771286e-03
1.586592290269321116e-03
1.621972460673755390e-03
1.630870835093101850e-03
1.617828886703263740e-03
1.618662586487470446e-03
1.651908547547112794e-03
1.693969639302632564e-03
1.712150662655210608e-03
1.709831032582959098e-03
1.721477995750795090e-03
1.764364795902367486e-03
1.813791095478814452e-03
1.836186486628976766e-03
1.834323285906696872e-03
1.842286718074282598e-03
1.877294513652194401e-03
1.915236265802535212e-03
1.923806516575875519e-03
1.907102459084651300e-03
1.899864199068351453e-03
1.919205943146622215e-03
1.940852532614353951e-03
1.933058206734809478e-03
1.900994021656500412e-03
1.879834721130453027e-03
1.885824599095542193e-03
1.893044936369027431e-03
1.868332242387052596e-03
1.816395213931478597e-03
1.773129272073921577e-03
1.756393109509210917e-03
1.742287944112083566e-03
1.699701693477829491e-03
1.635046477602198484e-03
1.585130209867002815e-03
1.567650833719669984e-03
1.557525143385116856e-03
1.521955671704078826e-03
1.465952672800774261e-03
1.425552410112710354e-03
1.418120824754402071e-03
1.418558085420945809e-03
1.394294739996275977e-03
1.350439191947871813e-03
1.322741353593529130e-03
1.328242536770287818e-03
1.341911741591598345e-03
1.331366169940925541e-03
1.301263960117434761e-03
1.286096483449938530e-03
1.301631044218710866e-03
1.322435149095788076e-03
1.316716385114845723e-03
1.290225829414686984e-03
1.278492083712075462e-03
1.297854849764581812e-03
1.322854043191323391e-03
1.321294732204362013e-03
1.298570841101196263e-03
1.290143313467374559e-03
1.312411315308517016e-03
1.339770335781636547e-03
1.339544913308858033e-03
1.316414418362883958e-03
1.305247450483132399e-03
1.322565174454937847e-03
1.343795544103026148e-03
1.337544300606061283e-03
1.309143098031845254e-03
1.293242726840199575e-03
1.305791658909942823e-03
1.322005219441568444e-03
1.310852859113813881e-03
1.278279439152782068e-03
1.259376242819019217e-03
1.270114736199969181e-03
1.285380554270664551e-03
1.273690858206816875e-03
1.240543817566137387e-03
1.220743040805095676e-03
1.230330870346687481e-03
1.244547198909411873e-03
1.232206564281021662e-03
1.198713393525480120e-03
1.178323863890921690e-03
1.186509407563563281e-03
1.198462510797057394e-03
1.183498249939516408e-03
1.147671159526522048e-03
1.125701820146500845e-03
1.133303857114985325e-03
1.145971581197990311e-03
1.133580026424805404e-03
1.102641807900045165e-03
1.087657654773168531e-03
1.103341604777402507e-03
1.123782834257315393e-03
1.117509651842118513e-03
1.090207109274245623e-03
1.076432490785053653e-03
1.091767967207192373e-03
1.111439008335729332e-03
1.104821517095371484e-03
1.077900114676926934e-03
1.064994296660404238e-03
1.081215000538213091e-03
1.101591451759308636e-03
1.095779787663714051e-03
1.070045847420960164e-03
1.058439516545335579e-03
1.075462024593131470e-03
1.095823480768387016e-03
1.089348050333615280e-03
1.062743425774373765e-03
1.050573746033548264e-03
1.067736110913914890e-03
1.089033851948680975e-03
1.084033699114074663e-03
1.058960361542665880e-03
1.048051879497532458e-03
1.066333250546076545e-03
1.088828670265295541e-03
1.084878695277598573e-03
1.060165985798706186e-03
1.048670321665797107e-03
1.065961052527148682e-03
1.088496387176592431e-03
1.087234366089337087e-03
1.068517085689829962e-03
1.065404027887436114e-03
1.091291727114374228e-03
1.120246512128764832e-03
1.121635479120718960e-03
1.101338645984685765e-03
1.092920972739465195e-03
1.111051638425012127e-03
1.131463757140554333e-03
1.124971229628824419e-03
1.098252792910471305e-03
1.085115486111006694e-03
1.100295669445566955e-03
1.119557432690442261e-03
1.113447414017466192e-03
1.087915788489444806e-03
1.075885977008259834e-03
1.091446844311292144e-03
1.110051747522504753e-03
1.102299952969867242e-03
1.074815081480010037e-03
1.062763741501707680e-03
1.086084132942253741e-03
1.130838912774967484e-03
1.179198851341065578e-03
1.241241157502411853e-03
1.339123916643624509e-03
1.461240046633814800e-03
1.548270331245420878e-03
1.535576408314800242e-03
1.404806649879596948e-03
1.184973313243844247e-03
9.100301458367533042e-04
5.959703035980168720e-04
2.650124470914287829e-04
-2.742501675524755544e-05
-2.119453650121132585e-04
-2.554724104304084871e-04
-1.820432672852800686e-04
-3.840469724351825917e-05
1.501632751798459564e-04
3.781567509850182474e-04
6.226231690848369436e-04
8.314659785970172044e-04
9.616076191454438551e-04
1.018749455888651265e-03
1.044626355532685645e-03
1.066745190344923003e-03
1.075382842631700253e-03
1.054576478185467996e-03
1.020021363002665549e-03
1.009001257402619006e-03
1.035277044290787429e-03
1.071626279452618166e-03
1.085409814663033067e-03
1.079638266360943670e-03
1.084594001212706507e-03
1.112835479841253489e-03
1.140423153660307352e-03
1.140259172819677643e-03
1.120754267069196466e-03
1.115744473289629821e-03
1.139074829837924407e-03
1.166485359488346300e-03
1.169874329402888647e-03
1.156466527547548272e-03
1.158803083821846949e-03
1.189401331977914429e-03
1.222843653610041458e-03
1.230252267939016715e-03
1.218835050425190643e-03
1.222350019155216561e-03
1.255626375035320645e-03
1.295531218470940930e-03
1.314117924549643504e-03
1.317766390720727637e-03
1.338335709696791311e-03
1.388652660630684040e-03
1.444034904574790362e-03
1.475528123428016328e-03
1.488777959300812987e-03
1.514861060850968520e-03
1.565966636862398120e-03
1.617478402513823806e-03
1.641258307051574744e-03
1.643997063478263351e-03
1.657656456781058264e-03
1.695031801120693710e-03
1.731807127075579364e-03
1.739886201092600421e-03
1.725873331014394010e-03
1.721882546560854835e-03
1.741425502790980295e-03
1.761037304776242457e-03
1.752718688159262544e-03
1.722127327511436753e-03
1.699980591965177638e-03
1.698957338511493647e-03
1.696079277535171570e-03
1.665071507542170790e-03
1.613789913635020525e-03
1.574843967782466828e-03
1.562062787280769569e-03
1.552832336766419956e-03
1.520647051157153571e-03
1.472695010646125034e-03
1.440678114153670815e-03
1.437571983765685568e-03
1.440058031358105051e-03
1.421010077003349338e-03
1.387108292797699025e-03
1.369660894077490403e-03
1.381317164950184983e-03
1.398467831574253493e-03
1.393437386886534936e-03
1.371749294598806953e-03
1.363333476840475518e-03
1.380268468365412025e-03
1.399728979038588304e-03
1.395702924451066446e-03
1.375388241087131119e-03
1.369784099542123434e-03
1.391123916496740665e-03
1.415843696048391630e-03
1.416798510687304440e-03
1.400341218111565093e-03
1.397155605959349289e-03
1.419476485312793669e-03
1.443945105885129955e-03
1.443901713517764876e-03
1.426262937346626722e-03
1.421889314170778768e-03
1.442718879599347304e-03
1.465012518138688116e-03
1.461920875220652262e-03
1.440419922547195829e-03
1.431818837681679731e-03
1.448974360799048199e-03
1.469305407888107581e-03
1.466766948829910898e-03
1.448071206317002972e-03
1.443114541547899522e-03
1.463035192294026739e-03
1.484213282510140133e-03
1.480663896039367388e-03
1.459987408991541852e-03
1.453042024753522891e-03
1.471371778771561525e-03
1.491135955472094009e-03
1.485883071442945652e-03
1.463006735222137714e-03
1.453562380810423816e-03
1.469442136870410896e-03
1.487153199511666475e-03
1.480512782482183015e-03
1.456953034160899784e-03
1.447486472678811455e-03
1.464171022954701730e-03
1.483783439199394538e-03
1.480210386872702309e-03
1.460575712480304336e-03
1.455141323699886413e-03
1.474968197561842866e-03
1.496103643158401032e-03
1.492397552934978527e-03
1.471508920597959253e-03
1.464316921957384797e-03
1.482346784317946364e-03
1.502053548590184286e-03
1.497630090296714778e-03
1.476855504917051320e-03
1.470421212713657853e-03
1.489353096391094009e-03
1.509479463291064135e-03
1.504646598337965220e-03
1.482683169622822563e-03
1.474400085608645449e-03
1.490962859671812225e-03
1.508671753655312260e-03
1.502093955465714711e-03
1.479560348129308790e-03
1.471960438874509239e-03
1.490383886413410193e-03
1.511228839226634243e-03
1.509076662899111292e-03
1.491642230935751479e-03
1.488603387749838983e-03
1.509609693966190366e-03
1.529746242217603844e-03
1.523185302407866794e-03
1.498799237346973984e-03
1.488600165536813069e-03
1.504745926798526853e-03
1.524106399771261132e-03
1.521236930825071131e-03
1.503786085467495939e-03
1.501543938565893556e-03
1.524643553679645540e-03
1.549029048486172053e-03
1.549330846928942580e-03
1.533514953966996254e-03
1.531386769120019441e-03
1.552968690285937842e-03
1.574999128822866107e-03
1.575591869414303889e-03
1.570539121308269122e-03
1.601126475248211903e-03
1.687328041949685137e-03
1.805947833808476278e-03
1.918895835898939799e-03
2.008783260675741505e-03
2.072017191281827399e-03
2.084821207870787146e-03
2.000938004801906551e-03
1.795016441020517821e-03
1.498687637022864862e-03
1.182685591766528301e-03
9.050171187570503484e-04
6.855114444317069074e-04
5.305053282636433901e-04
4.638459715412095175e-04
5.143310758635500669e-04
6.748675405767973028e-04
8.925621787363637732e-04
1.108733442384168127e-03
1.300350796129334362e-03
1.473594996283048193e-03
1.625260208048216574e-03
1.729304016807298693e-03
1.767859528820063357e-03
1.761684764309435526e-03
1.754152372252508474e-03
1.766487622625938832e-03
1.782358377458019214e-03
1.780743767081721489e-03
1.770720459431949015e-03
1.780499101741736187e-03
1.817067010192218932e-03
1.853815468173426653e-03
1.864416947614937290e-03
1.856692760446157497e-03
1.860226643377242521e-03
1.885122537402294032e-03
1.908893380311195778e-03
1.909223282179718217e-03
1.896611955342797362e-03
1.901315133069994903e-03
1.932319769213477686e-03
1.964947592796395179e-03
1.974400042387298819e-03
1.969284806941409057e-03
1.979178354544477384e-03
2.013404629694082355e-03
2.048056045644831586e-03
2.059215385480499608e-03
2.056170328681714617e-03
2.068642819049575001e-03
2.105761699427913854e-03
2.143589072879789441e-03
2.158371067885320269e-03
2.159203596672431679e-03
2.174825551567495692e-03
2.212950289890053355e-03
2.248778797266217776e-03
2.258916795500503713e-03
2.253756127079911253e-03
2.263364416329214073e-03
2.296021131098189248e-03
2.326430314048060551e-03
2.329850918072405054e-03
2.315149073266803068e-03
2.311563971540281804e-03
2.327685263450142254e-03
2.339332890056312463e-03
2.323078734147634300e-03
2.288918781249912882e-03
2.266854504208357796e-03
2.265923105378504516e-03
2.262359666498149017e-03
2.233143689033064479e-03
2.188359033904656390e-03
2.157666341958016949e-03
2.149624161570458988e-03
2.140358477947602693e-03
2.107372902130063945e-03
2.061397389836395772e-03
2.032100921414433260e-03
2.027389238957896106e-03
2.022550439257874994e-03
1.994353052674232522e-03
1.953072685327997184e-03
1.928414936897483896e-03
1.928759008608360928e-03
1.929858978678637704e-03
1.908504112786891041e-03
1.874595350861201805e-03
1.857505499134315657e-03
1.865618487984231893e-03
1.874973980442272772e-03
1.862667071104618429e-03
1.838509061447898742e-03
1.831038348910538592e-03
1.847439238342809230e-03
1.863145680772683530e-03
1.855570876701735043e-03
1.835246496042014334e-03
1.831324978319014835e-03
1.851291059448933324e-03
1.870561518611495513e-03
1.866401236311344795e-03
1.849240120439562662e-03
1.848267936806946912e-03
1.871108254670613390e-03
1.893135369046362697e-03
1.891175190784487314e-03
1.874982417100696727e-03
1.873212025772837824e-03
1.893475061538308669e-03
1.911893170765318999e-03
1.906714856056041484e-03
1.889181371606631077e-03
1.888497933622707188e-03
1.911481607510146820e-03
1.932856257105698868e-03
1.929762339551676937e-03
1.912823134087996476e-03
1.910971366296710001e-03
1.931014316412064512e-03
1.947930812366482738e-03
1.939378899175133071e-03
1.916600103532421426e-03
1.909069111903858793e-03
1.924108626505120247e-03
1.937158868255347850e-03
1.925990300779256356e-03
1.901445568837457044e-03
1.892271047639828771e-03
1.905133632689954941e-03
1.915388663738587169e-03
1.901526813531391295e-03
1.875506440336277732e-03
1.866792540020667870e-03
1.881888080424077517e-03
1.895367390073624675e-03
1.885042531875342781e-03
1.862603364835190706e-03
1.857340710457754986e-03
1.875480508429532532e-03
1.891458666910186305e-03
1.883216845731337016e-03
1.862500819960337915e-03
1.858260183105457045e-03
1.876273587611694896e-03
1.890971414728759119e-03
1.880800811759520894e-03
1.858166832834259961e-03
1.852393476036418539e-03
1.868916328530843135e-03
1.881146043506564877e-03
1.866722047256757881e-03
1.838383143004518674e-03
1.826844409831425951e-03
1.839154487574280392e-03
1.850009899546904528e-03
1.837845348741716772e-03
1.815212731275007638e-03
1.811054726774495496e-03
1.829429497745825930e-03
1.842253550996204685e-03
1.826772597832869091e-03
1.796288890450592653e-03
1.781784526430036514e-03
1.789878743347403118e-03
1.795051737185022426e-03
1.776416265743027689e-03
1.747761339397121104e-03
1.739160197449753607e-03
1.755462204186901062e-03
1.769149266873811487e-03
1.757669133679094602e-03
1.733881856013033511e-03
1.727806798489498613e-03
1.744887907965739574e-03
1.758489967887133520e-03
1.747232759168931750e-03
1.726103304621291398e-03
1.729745096821382923e-03
1.772246081107708548e-03
1.837923683057863296e-03
1.911468128729716057e-03
2.000047149328441562e-03
2.112368362121902661e-03
2.221228707884288951e-03
2.263937094934389063e-03
2.189802389728709615e-03
2.000904308074680747e-03
1.738982932038362749e-03
1.442209885263250144e-03
1.130579282073219862e-03
8.314690764004029760e-04
5.988046638328802483e-04
4.884102866491543855e-04
5.137540340207241187e-04
6.378977120062401078e-04
8.130691115623305855e-04
1.017038547019764178e-03
1.242778133872604347e-03
1.464751659313263087e-03
1.637327579172436626e-03
1.733419544004572224e-03
1.771858294701707769e-03
1.794215379843482668e-03
1.819351347667549565e-03
1.833683768091963744e-03
1.825960972191662847e-03
1.815244142352684040e-03
1.832027917837498673e-03
1.878572612698427811e-03
1.924534775828692403e-03
1.945694153563366433e-03
1.953698101517202003e-03
1.976893387542567448e-03
2.019291318015568187e-03
2.054337036567608146e-03
2.061791411556923408e-03
2.056337624682099113e-03
2.068124488021859213e-03
2.102021289630923336e-03
2.131930675706152686e-03
2.137952810911480147e-03
2.134679652787801682e-03
2.151230450266476083e-03
2.190704724290038884e-03
2.225533165730872627e-03
2.235464629287127556e-03
2.235783935807765348e-03
2.256705729986472654e-03
2.302131093320762805e-03
2.344615249325519846e-03
2.363375542975052097e-03
2.372762933401590443e-03
2.402097211386693045e-03
2.454831735876187009e-03
2.503430363673599546e-03
2.526904274742981359e-03
2.538972228198215116e-03
2.567957155381869749e-03
2.616355422923342076e-03
2.656346192761614364e-03
2.667739902986873343e-03
2.665697070285781393e-03
2.679580242155342202e-03
2.712123048678108297e-03
2.735579748228217801e-03
2.730243066325912463e-03
2.711903377124816935e-03
2.710187342611356572e-03
2.727525226531787427e-03
2.735258112322746116e-03
2.712331942353926346e-03
2.673469666515631248e-03
2.648357301557983066e-03
2.640809652550304629e-03
2.624394161724582022e-03
2.580387405963301562e-03
2.525215690572107236e-03
2.489307470598669907e-03
2.476470142296708851e-03
2.459768790694983210e-03
2.419587385876868172e-03
2.371256094801210690e-03
2.344121880242164540e-03
2.341231642223501417e-03
2.335668821346079203e-03
2.308628698698787264e-03
2.276224459299147195e-03
2.267593607217749212e-03
2.284464651140795735e-03
2.298270103728418910e-03
2.288916816419754065e-03
2.271626944867214965e-03
2.274889650991047084e-03
2.300055027272576193e-03
2.318472392372592557e-03
2.310305820825897614e-03
2.291574529356943044e-03
2.292145604600412476e-03
2.315007804064054490e-03
2.332974608068871542e-03
2.326982026063764003e-03
2.312583884164631266e-03
2.317979018703762890e-03
2.344121234761099674e-03
2.362446281931271982e-03
2.353808026468797408e-03
2.334917041888770819e-03
2.335638414305305031e-03
2.358282268738226290e-03
2.374927787892834076e-03
2.366371342411312338e-03
2.348799102835310518e-03
2.351420447213512215e-03
2.376108357659302821e-03
2.394777538015834852e-03
2.387882075471201796e-03
2.370697012620394482e-03
2.371319181873852554e-03
2.391189887520216769e-03
2.402968409060417167e-03
2.388624047358233436e-03
2.364819208916388305e-03
2.360296732068692567e-03
2.376398555508978713e-03
2.385425047840122100e-03
2.369336903206861397e-03
2.345270599228310628e-03
2.342362516591907882e-03
2.361672626444810946e-03
2.374640859661116508e-03
2.362358413151397808e-03
2.341426352210527854e-03
2.340842703154997432e-03
2.361996320345657006e-03
2.376851295519268482e-03
2.366472957028155615e-03
2.346682392359741159e-03
2.345755597807576160e-03
2.365201303230649293e-03
2.377916346606639107e-03
2.366104679109211090e-03
2.346162469705986939e-03
2.345992819679870722e-03
2.366228206121011486e-03
2.379246397023548811e-03
2.367492390221697524e-03
2.347955299204542746e-03
2.348772904039801625e-03
2.370174807641956417e-03
2.383747711357078573e-03
2.371210701268035726e-03
2.349296505676492283e-03
2.346493081045784510e-03
2.363786968831300874e-03
2.373543652873062997e-03
2.357942465133173321e-03
2.333798294393643353e-03
2.329564980423499011e-03
2.346524597191096493e-03
2.357917488144963859e-03
2.346942735035338883e-03
2.330734219669740401e-03
2.336797749247352361e-03
2.364116565404173007e-03
2.382886088619710387e-03
2.373842078882597208e-03
2.353358238247991920e-03
2.350092384771382530e-03
2.365747094030859997e-03
2.374091301377057473e-03
2.359047750433369492e-03
2.338519606651700070e-03
2.340601348872775166e-03
2.364916804845444091e-03
2.382705063329713588e-03
2.375864322392918018e-03
2.361129245323902691e-03
2.366076398855944743e-03
2.390420013756150604e-03
2.406281009522581206e-03
2.396896327128686909e-03
2.380173565852117517e-03
2.385125206642701740e-03
2.415201681479693056e-03
2.450644930161938444e-03
2.486059184695820368e-03
2.547471890153393207e-03
2.659547074945487703e-03
2.803049119555831113e-03
2.918312702410640232e-03
2.951574093580342471e-03
2.888580450406687174e-03
2.740648534155489414e-03
2.512712244909355661e-03
2.205184109060272322e-03
1.848139739589530622e-03
1.513314823062188261e-03
1.276581228791800766e-03
1.170736527444972593e-03
1.181266306031401869e-03
1.282527224870950305e-03
1.463029540916599078e-03
1.709086161238168936e-03
1.977518316122953059e-03
2.206028282894631400e-03
2.357558854922119258e-03
2.444193202148527838e-03
2.499486894134471306e-03
2.535533210790511319e-03
2.539779366494161229e-03
2.510507340733967013e-03
2.476873118865928480e-03
2.472377802695741034e-03
2.496897683775020638e-03
2.519946277875447817e-03
2.521947088178838874e-03
2.518259766617846583e-03
2.534544151235944461e-03
2.568666567493099219e-03
2.592207554407816548e-03
2.589403989855305465e-03
2.579231004946727027e-03
2.589542741594206849e-03
2.618946310156134317e-03
2.639327957599590241e-03
2.635407216836613969e-03
2.626385788271645618e-03
2.639652934001378553e-03
2.672863681397881410e-03
2.696986814659211792e-03
2.696383708994493002e-03
2.690619209284766163e-03
2.707772098922589955e-03
2.745990675976409633e-03
2.776276416423366106e-03
2.782559866613710901e-03
2.783761204727007964e-03
2.807451958683716484e-03
2.851586604166814372e-03
2.887212833293489878e-03
2.898238569372929910e-03
2.903119053069502797e-03
2.928572273745482825e-03
2.971926354825692434e-03
3.004284981447951416e-03
3.010005847817644707e-03
3.007840992214967646e-03
3.024513343440114396e-03
3.057174708217512155e-03
3.076607421622197091e-03
3.066833449293919489e-03
3.046616422567044544e-03
3.043346743821450338e-03
3.055374246880944097e-03
3.054631969859744525e-03
3.025608142861867678e-03
2.986588201045896167e-03
2.963890963087043549e-03
2.955071880885065498e-03
2.932421418025780383e-03
2.882100475180752238e-03
2.824521700563350796e-03
2.787477087199179311e-03
2.769091530884120519e-03
2.741762464530673061e-03
2.691607895678524778e-03
2.638897348709444857e-03
2.611091850799886552e-03
2.605606410887050407e-03
2.593689516775638491e-03
2.560135593430025013e-03
2.524203091880988098e-03
2.512967730387461081e-03
2.523873631550145342e-03
2.528176093882737122e-03
2.510408703935757772e-03
2.489149630320155408e-03
2.490469141296127072e-03
2.511198641152382564e-03
2.523114496069259801e-03
2.512122203503747587e-03
2.497826380996377108e-03
2.506002336190373513e-03
2.532096375412549744e-03
2.546664213113095446e-03
2.535467043204430934e-03
2.518858952539932902e-03
2.523664232863257872e-03
2.546270143790304533e-03
2.557811141488450842e-03
2.544278939405676156e-03
2.526154445496146123e-03
2.530359703989951223e-03
2.553271365392953060e-03
2.565971833036949108e-03
2.554439302985301707e-03
2.539013483841907632e-03
2.546108861052048724e-03
2.571259597345585540e-03
2.584680551653593256e-03
2.571741353881079606e-03
2.552525414787872385e-03
2.553664836603012321e-03
2.571605630649173753e-03
2.578049635598765252e-03
2.559809908360536224e-03
2.537724474709636066e-03
2.538260567095915448e-03
2.557133772938990652e-03
2.565385942454711382e-03
2.549427686452492882e-03
2.529680252633993015e-03
2.532118238497024516e-03
2.552107870457999590e-03
2.560618607626720823e-03
2.544230634034711641e-03
2.523665227422351807e-03
2.525208389853255721e-03
2.544504344090243227e-03
2.552874322859076828e-03
2.537342753452912197e-03
2.518703685532352413e-03
2.522440959713940188e-03
2.542856887646659323e-03
2.550349426550752550e-03
2.532075546066384335e-03
2.509884232073889172e-03
2.510595832571300111e-03
2.529581434915871042e-03
2.537751061044357052e-03
2.522027973515266700e-03
2.503435423703619968e-03
2.507899393338271742e-03
2.530176746249889874e-03
2.540811456146024189e-03
2.526396837005564881e-03
2.507557800729269017e-03
2.510084997728569134e-03
2.529348215978651469e-03
2.537173526327247616e-03
2.521452020606376829e-03
2.503396365246726273e-03
2.508278891332700860e-03
2.530184495453802109e-03
2.539865108337855271e-03
2.525087793089847345e-03
2.507701054047826745e-03
2.513511948381755463e-03
2.536406030198690067e-03
2.546342543689989347e-03
2.530272076333778784e-03
2.509701613223818111e-03
2.510924554100074733e-03
2.529161670588306928e-03
2.535890413258674956e-03
2.518713732606326413e-03
2.498597073942412060e-03
2.500952111854520300e-03
2.520663628213007466e-03
2.529456892625138540e-03
2.515516440418618434e-03
2.500261852670943117e-03
2.508510461900946131e-03
2.533330861650019434e-03
2.544635639382743317e-03
2.529924471977121683e-03
2.511108810294751612e-03
2.514337815163560953e-03
2.534516166227126794e-03
2.543229429072707201e-03
2.528697430399414348e-03
2.512442905834168672e-03
2.519691590154547311e-03
2.544477648563608051e-03
2.557725604770348226e-03
2.547148568661531005e-03
2.533878913538852029e-03
2.542850472400237562e-03
2.568019783945105390e-03
2.580670713901789867e-03
2.569440113544794752e-03
2.557419797610564413e-03
2.574020166104122424e-03
2.621590814081964631e-03
2.681965127061175080e-03
2.749872345580396324e-03
2.841779852307078219e-03
2.963529084586663531e-03
3.079160772554695186e-03
3.126307698804552029e-03
3.064694044907323705e-03
2.900404745486616972e-03
2.661897880595745936e-03
2.369028484952104101e-03
2.039377610452764930e-03
1.716928835704479954e-03
1.473467752305987477e-03
1.367687660623779881e-03
1.404587129390126761e-03
1.542652692997526810e-03
1.738039844064849515e-03
1.969677853848621554e-03
2.219769506651665843e-03
2.448542298443142761e-03
2.609027143987190534e-03
2.687664891957510654e-03
2.715695079994503817e-03
2.732561755103408291e-03
2.746582819246603299e-03
2.741621245026476614e-03
2.715984468496998420e-03
2.696980841627307640e-03
2.710006426306198722e-03
2.745557919368364023e-03
2.771209431898561792e-03
2.773373920546096365e-03
2.772537368288788620e-03
2.792098968736156199e-03
2.824572735006960263e-03
2.841880626800589050e-03
2.834949100460041130e-03
2.827247051256515705e-03
2.843007399745082348e-03
2.873977336331913490e-03
2.890946409809440863e-03
2.884346480941578968e-03
2.877989991929918480e-03
2.896798524909371519e-03
2.932818563873463777e-03
2.956431406569695695e-03
2.957315173291923203e-03
2.958598170938583384e-03
2.984686089327915574e-03
3.027464144671477599e-03
3.057653682299193727e-03
3.065320263358484610e-03
3.073448358588947923e-03
3.105943251937514152e-03
3.154439227048634001e-03
3.189804450048280404e-03
3.202215308698087935e-03
3.214198289271160552e-03
3.248489738254125170e-03
3.295256349960811511e-03
3.324251105202080843e-03
3.325292914454077223e-03
3.321270898753046676e-03
3.335812502455337385e-03
3.360464830519398552e-03
3.366738085794055216e-03
3.346217551989977453e-03
3.323129239398245338e-03
3.321553058198077092e-03
3.332368266479506912e-03
3.325627918764054256e-03
3.291206290105138776e-03
3.251720629927355548e-03
3.230256899172198864e-03
3.217983159863838094e-03
3.186710619487710412e-03
3.129000022825487431e-03
3.070138911508579586e-03
3.035075642857985520e-03
3.015848101205222381e-03
2.984400811362318811e-03
2.932896343053739436e-03
2.885708562367791507e-03
2.866262681550188311e-03
2.864501643288179002e-03
2.850262801029911780e-03
2.814377143825172976e-03
2.780907370856610175e-03
2.773743715277571503e-03
2.783862457360865121e-03
2.782309871573219583e-03
2.760408965109174655e-03
2.741379584914909427e-03
2.747447826920114498e-03
2.768338033328472322e-03
2.775085737703020250e-03
2.759922900454814601e-03
2.746705600220866392e-03
2.757231721389915863e-03
2.780188590908454389e-03
2.786037040024356981e-03
2.767567169510635854e-03
2.750238501703243521e-03
2.757749598221901147e-03
2.780020715851506778e-03
2.787516541535959170e-03
2.772020734506064517e-03
2.757762503808203463e-03
2.767571143423491319e-03
2.790949142904473445e-03
2.798395932698441446e-03
2.781993438545842402e-03
2.766031531684304181e-03
2.773106652549733441e-03
2.792744392888318883e-03
2.795987195732100011e-03
2.775686510974117050e-03
2.756717182728421478e-03
2.761826912194089573e-03
2.780355249499985755e-03
2.783148779223505644e-03
2.762932061439472928e-03
2.744297161430840192e-03
2.749488881330448744e-03
2.767399310050338949e-03
2.768806676182528331e-03
2.746867436579534735e-03
2.726927286931834279e-03
2.731874982432871621e-03
2.750829105168475699e-03
2.754425425531169345e-03
2.735409549479770122e-03
2.718422191244795894e-03
2.725445283755029407e-03
2.744859236709497590e-03
2.747252090088727651e-03
2.726164336129034433e-03
2.707219718412206318e-03
2.712819173519743273e-03
2.731341858263422115e-03
2.733518876294715495e-03
2.713175798325875420e-03
2.696028415126416368e-03
2.704314746597197890e-03
2.726038302786310420e-03
2.731324564208899471e-03
2.713340573101556512e-03
2.697359489500570154e-03
2.705461549594300342e-03
2.725808264489982136e-03
2.729063504266729390e-03
2.709090347538404241e-03
2.691596642592420773e-03
2.698752727567468521e-03
2.718802561062224656e-03
2.722760819246435298e-03
2.704848058904396266e-03
2.690438731454347469e-03
2.700428531215975664e-03
2.721672967008348463e-03
2.724806713873947125e-03
2.704903443301880702e-03
2.688780148474996176e-03
2.698545551182809140e-03
2.721361675160564007e-03
2.727076450570131705e-03
2.709551309580648590e-03
2.694999237514986417e-03
2.705936270709822979e-03
2.730398823482057483e-03
2.738641476165425224e-03
2.723929332743041387e-03
2.711139458898675567e-03
2.721535689483235883e-03
2.742780719691894839e-03
2.745919640895958143e-03
2.725706539248709970e-03
2.708157433371878413e-03
2.714622886133083012e-03
2.732262736189552520e-03
2.731971079800056892e-03
2.708773672489458908e-03
2.688635722870666087e-03
2.692295245676193296e-03
2.706436067476046450e-03
2.702205953908374658e-03
2.675476710553860524e-03
2.653297834045668675e-03
2.657342119243196518e-03
2.674463766478005385e-03
2.674879538840285991e-03
2.652810657665988312e-03
2.633654963990837705e-03
2.638033357396909508e-03
2.652761305260584613e-03
2.649192411622546678e-03
2.623404769944704534e-03
2.602253509376140344e-03
2.606608613136631586e-03
2.622701899377507216e-03
2.621418437390448004e-03
2.598887580252198532e-03
2.582205871633626998e-03
2.592157007974575308e-03
2.614422182253478295e-03
2.619204910779064990e-03
2.602212937582522485e-03
2.590706710659221486e-03
2.607215080286561220e-03
2.642827719006008748e-03
2.677846399119109509e-03
2.718942585366373229e-03
2.796556500608771839e-03
2.920848716362018510e-03
3.052981312577546930e-03
3.130159264329819731e-03
3.114653518060268508e-03
3.009263813096098566e-03
2.828340805428982557e-03
2.573826175148058362e-03
2.254716364712079906e-03
1.919318432504475962e-03
1.645977439226852662e-03
1.493475791652810331e-03
1.466878062796690176e-03
1.535565785372033486e-03
1.674929636234396245e-03
1.877088286870614350e-03
2.122528712550672807e-03
2.361342251710547586e-03
2.540179045299446100e-03
2.645169711799862274e-03
2.704941831726568463e-03
2.749015134647469442e-03
2.775893667625429963e-03
2.770447396697913334e-03
2.741645307287056497e-03
2.724490592120072142e-03
2.741117326150983337e-03
2.774527721900805783e-03
2.792384927305064084e-03
2.789442199742248399e-03
2.791591984137449002e-03
2.817162315441435784e-03
2.849626832674280290e-03
2.859605090334587773e-03
2.845508598570114112e-03
2.836530126607906752e-03
2.853614699160996002e-03
2.882018025234219308e-03
2.892992665097939009e-03
2.884200375525412807e-03
2.882973803149252012e-03
2.908230968520227923e-03
2.944049419985530526e-03
2.961541779063744766e-03
2.958752307916154203e-03
2.963358748766663393e-03
2.994216168889317527e-03
3.035014863875785951e-03
3.056674392910495482e-03
3.057513568679430353e-03
3.065738736099908601e-03
3.100685278944887747e-03
3.146313935030503519e-03
3.173530921118524264e-03
3.180266967485999036e-03
3.193920531236317788e-03
3.232789882910834522e-03
3.279867152758931485e-03
3.305178925539668539e-03
3.305680212938380980e-03
3.307868710024020314e-03
3.329879442249146157e-03
3.355829692498278616e-03
3.358010952911710725e-03
3.335919628577108890e-03
3.317841630166436153e-03
3.322430187255389494e-03
3.333257052468013935e-03
3.321632554740839346e-03
3.286210617554743366e-03
3.254813888881109840e-03
3.245981702643149606e-03
3.243343644789560814e-03
3.218232194561764393e-03
3.169296471373261002e-03
3.124550950127038488e-03
3.103088304558211490e-03
3.089597983964413336e-03
3.056984365435663938e-03
3.005234232925986081e-03
2.962446063223881081e-03
2.946689427274176709e-03
2.941581890714031582e-03
2.919387608302545338e-03
2.879684173549299907e-03
2.850190767928852294e-03
2.848448919666653114e-03
2.857362537989467655e-03
2.848711694613198855e-03
2.822214176754190250e-03
2.806028052284582387e-03
2.817682361710713637e-03
2.839360750056855575e-03
2.841886787411419119e-03
2.824344570860152885e-03
2.814716543038954608e-03
2.830676127199770534e-03
2.854707888661650941e-03
2.857910382430051566e-03
2.839502293065876513e-03
2.827514324221940684e-03
2.839828124739456582e-03
2.859681419150645384e-03
2.859446541148136147e-03
2.839328285373926650e-03
2.827230747778378735e-03
2.839843991353136615e-03
2.859047735466014456e-03
2.856767562574782839e-03
2.833951593912714499e-03
2.819611559872468344e-03
2.830998066582619561e-03
2.849887076077604886e-03
2.847803235350217059e-03
2.825301365159637451e-03
2.811139726012102692e-03
2.822518160383982559e-03
2.841389610487591189e-03
2.839471147256673097e-03
2.817135911709285883e-03
2.802578000422270739e-03
2.812563873292890388e-03
2.829265242359620298e-03
2.825382929932134315e-03
2.802606284231783530e-03
2.789954535878620863e-03
2.803953259786719568e-03
2.825667783005257009e-03
2.826497912080481317e-03
2.807176636837019953e-03
2.796324168088346832e-03
2.810543920443185194e-03
2.831211106717034225e-03
2.830077171206969461e-03
2.808107914617484404e-03
2.793965684131479148e-03
2.804449764981609833e-03
2.821693052376732409e-03
2.818528133585695723e-03
2.796559196246278019e-03
2.784029940764786749e-03
2.796429203894515870e-03
2.814645147171619677e-03
2.811130732679750863e-03
2.787907301214197740e-03
2.773905101037549541e-03
2.785212730820455819e-03
2.803181543159880430e-03
2.800591475495326551e-03
2.779550044747794435e-03
2.768833875639979854e-03
2.784215585010218260e-03
2.806468794758851942e-03
2.807561515905141608e-03
2.788975605055712959e-03
2.779324573990838050e-03
2.794556849119419865e-03
2.815936976163581178e-03
2.816245099139279891e-03
2.797589140564899195e-03
2.788423797099822722e-03
2.803890712971994232e-03
2.824534947659950151e-03
2.823064693333193504e-03
2.802025480083941440e-03
2.790220273764893941e-03
2.802822056887206703e-03
2.820436368897735226e-03
2.816087963448754040e-03
2.792721480796408074e-03
2.779399737506710755e-03
2.791378335396814230e-03
2.809299799586612110e-03
2.806255682220377967e-03
2.785265651664365575e-03
2.775643201029396202e-03
2.793033954383373867e-03
2.817877417493531381e-03
2.821950811969055513e-03
2.806262508444862074e-03
2.798134457689584447e-03
2.812136352283089221e-03
2.829668279609078539e-03
2.825571316612685967e-03
2.804394349243994385e-03
2.795551870641323211e-03
2.813457840478518057e-03
2.837639277889232332e-03
2.840648855682545524e-03
2.825379894630681860e-03
2.820383731555726678e-03
2.839749326084023851e-03
2.863148920092296445e-03
2.863741234510654762e-03
2.845375077426801329e-03
2.838118661179368785e-03
2.859297327054605414e-03
2.895376548884884445e-03
2.930074411236664473e-03
2.977105959517168266e-03
3.067230629250039878e-03
3.202275287705859223e-03
3.335837339862663970e-03
3.406427043564437280e-03
3.382881461605363651e-03
3.271119234944653859e-03
3.084260604674697159e-03
2.825423744286301511e-03
2.509989527487546928e-03
2.190912532048745493e-03
1.940639007229381669e-03
1.803173378113562958e-03
1.772872981574175662e-03
1.822346835751364677e-03
1.939025896913771155e-03
2.122706457669104249e-03
2.352396443677876644e-03
2.575320034347254507e-03
2.741734336935499478e-03
2.844298098405238697e-03
2.911307397116362061e-03
2.963472094896216300e-03
2.991741401121370946e-03
2.982989929720800040e-03
2.953401009340290290e-03
2.939439185133535092e-03
2.956576828468048760e-03
2.982513038464628188e-03
2.988979230925381363e-03
2.979408198564327537e-03
2.981884588765961949e-03
3.008156380840911436e-03
3.035916371775391337e-03
3.039037913898562371e-03
3.023761374366876285e-03
3.020696158124718846e-03
3.043512117882845799e-03
3.071112376936104265e-03
3.077594527862264218e-03
3.068339787142497239e-03
3.072374957999130657e-03
3.101667717379832413e-03
3.134048061419490976e-03
3.143718312716700398e-03
3.137000576929967807e-03
3.143691059310872293e-03
3.175808649709343633e-03
3.210905252404069442e-03
3.223240545708801544e-03
3.219683853667005668e-03
3.230670057546002408e-03
3.268512788215698767e-03
3.310515795692737379e-03
3.330082517867995716e-03
3.332813744079989905e-03
3.348023222261277843e-03
3.387513904166815620e-03
3.428628648829456279e-03
3.444938926506864538e-03
3.441997444484713384e-03
3.448889478994522553e-03
3.477366609488419334e-03
3.505176696998894403e-03
3.506657251108553051e-03
3.488077710734810866e-03
3.478782908295622884e-03
3.490340328076581289e-03
3.500395427016827175e-03
3.483534359907275359e-03
3.446018232196076947e-03
3.416734460949558735e-03
3.407555739275175844e-03
3.397808480437909933e-03
3.363833147236750237e-03
3.312425235168276264e-03
3.271980231523929656e-03
3.253758020696852476e-03
3.236939844090737286e-03
3.198196164984378961e-03
3.144771014262439518e-03
3.105302983967249582e-03
3.091068086939969747e-03
3.081175328812768913e-03
3.052101672243071745e-03
3.010587899971097110e-03
2.984323886330467451e-03
2.983263407656810105e-03
2.985253639766365964e-03
2.966152722777046658e-03
2.932909031250065506e-03
2.913843823511858260e-03
2.919417573320140166e-03
2.927728006599464132e-03
2.914807013551510770e-03
2.887625112974843023e-03
2.874179678157098763e-03
2.884540717649481181e-03
2.896848457795446127e-03
2.887602524277623015e-03
2.864154653985098980e-03
2.854357458326015236e-03
2.867697922498257685e-03
2.881905193520860071e-03
2.873764389599524089e-03
2.851443213657419394e-03
2.843503686385702878e-03
2.859603348021684879e-03
2.877168332779714635e-03
2.872624706072960353e-03
2.854104481117630647e-03
2.850350738759953578e-03
2.870912058031280072e-03
2.892590642372509790e-03
2.890949838117926052e-03
2.873292633318500888e-03
2.867795533076310764e-03
2.884172118845324592e-03
2.900286397557993653e-03
2.893003135041715551e-03
2.870299736550253281e-03
2.860247550120755163e-03
2.872398825198681921e-03
2.885136516224772948e-03
2.876363522207052610e-03
2.854841623611376403e-03
2.848492626330979046e-03
2.865532922270194304e-03
2.882488073715056085e-03
2.876187500848711998e-03
2.855585557008756287e-03
2.849358680446440265e-03
2.866324458878841130e-03
2.883304460465938544e-03
2.877202650894883276e-03
2.856921380355291213e-03
2.851039845937302069e-03
2.868329910130889247e-03
2.885709679707660139e-03
2.880173279606704304e-03
2.860361463812415624e-03
2.854293063820509142e-03
2.870457023326729740e-03
2.886162689182353389e-03
2.879293316433236168e-03
2.859345116319865314e-03
2.854582048325262234e-03
2.872902179729392054e-03
2.890537759390549022e-03
2.884485516333982515e-03
2.864044151262270990e-03
2.857878010858563942e-03
2.874443887347259436e-03
2.890559612729532921e-03
2.883918085458536586e-03
2.864329979630995341e-03
2.860341326912829024e-03
2.879753979405753200e-03
2.898750180205927288e-03
2.894722155498209541e-03
2.877257470120808420e-03
2.874443404830243076e-03
2.893602259437451450e-03
2.910888217430848864e-03
2.904350766583377059e-03
2.884665939986783088e-03
2.880556588848003172e-03
2.898827894673969979e-03
2.914567442298467235e-03
2.905446318455252950e-03
2.882791765413914974e-03
2.876270845129671756e-03
2.893050422752879020e-03
2.907905256096990961e-03
2.898158786114836058e-03
2.875048218958781501e-03
2.868034843655973415e-03
2.883932222390734375e-03
2.897780763547251441e-03
2.888340017744597983e-03
2.868585312052357363e-03
2.868122961556586383e-03
2.891586757747348184e-03
2.911122335852035347e-03
2.903908124173871022e-03
2.882955754071299739e-03
2.878629738550303116e-03
2.896479166271142668e-03
2.909902136105617897e-03
2.897924953374265023e-03
2.875454695001695461e-03
2.873628251656836028e-03
2.897154705826150006e-03
2.917748100222898079e-03
2.912983104919409164e-03
2.896829727330418620e-03
2.899644886473235796e-03
2.925477209427146310e-03
2.945976759476605193e-03
2.939519122560190541e-03
2.921759404210503078e-03
2.926561139810084349e-03
2.965307496038572122e-03
3.020954809385928246e-03
3.081786532202609227e-03
3.162471748271542416e-03
3.278143219607149161e-03
3.403843939663766648e-03
3.475525474050740644e-03
3.438184192443147300e-03
3.285933750052651061e-03
3.049739611568574957e-03
2.758876232588331791e-03
2.431985770406646253e-03
2.103473230174586223e-03
1.837700180348301668e-03
1.698898323661789979e-03
1.705235086144854095e-03
1.821741887959570875e-03
2.000639504783666926e-03
2.217417635029656636e-03
2.460646863668074918e-03
2.700162786297297980e-03
2.887572999862081727e-03
2.994775953994872116e-03
3.039589255043194990e-03
3.062174502551191606e-03
3.081304049025432572e-03
3.085431059473676442e-03
3.065290608579708791e-03
3.039553792884757809e-03
3.037580267001682710e-03
3.063880941200802354e-03
3.093506130686003892e-03
3.104278884377135138e-03
3.102176157390827693e-03
3.107817461798012722e-03
3.126000094730870156e-03
3.140851118315058331e-03
3.140721018392487150e-03
3.135946688588284615e-03
3.144863425267179890e-03
3.168480983783422342e-03
3.189211345016841875e-03
3.195099647014974873e-03
3.195863312322699563e-03
3.208885758794883126e-03
3.234913672520662274e-03
3.257008517991260600e-03
3.264061626727291117e-03
3.266395336038608026e-03
3.281921055256887317e-03
3.311964656630631953e-03
3.340074247747938652e-03
3.355345382754951894e-03
3.367908203921777220e-03
3.394959324277563913e-03
3.436527915367331831e-03
3.474692957661047396e-03
3.497597716668221154e-03
3.514919417734409159e-03
3.543127388646591987e-03
3.581076319386570454e-03
3.610360234971853998e-03
3.620595326219268502e-03
3.624425493278020556e-03
3.640293427659665668e-03
3.665964791534848371e-03
3.680083333441131702e-03
3.671088057245087445e-03
3.654036021301583156e-03
3.650972806389392485e-03
3.660538247176116453e-03
3.658650651001151260e-03
3.630390303011659867e-03
3.589981655444394841e-03
3.561275035794499340e-03
3.545231593812497688e-03
3.519216744461276837e-03
3.469152906573944473e-03
3.410005759031951248e-03
3.366285355861630205e-03
3.339702514202329536e-03
3.308780865412544892e-03
3.260541126089851281e-03
3.209679731784072579e-03
3.178559003952380595e-03
3.166303189273362694e-03
3.150189680987435133e-03
3.117252348412014561e-03
3.082184736216976237e-03
3.066861167874026899e-03
3.069885270026937937e-03
3.068304543707940646e-03
3.049113901726108709e-03
3.026934500982938082e-03
3.023435183355401706e-03
3.036931453682642328e-03
3.044233715299960244e-03
3.032452687039834463e-03
3.016850542166831569e-03
3.019657865045636928e-03
3.038697132148848214e-03
3.049373732450210914e-03
3.038172104809483583e-03
3.021834659037122769e-03
3.024988834349853252e-03
3.046178883991282164e-03
3.059345112601501680e-03
3.049397329641478742e-03
3.032888779221488192e-03
3.035093746184067652e-03
3.055130381243026817e-03
3.067173107745000283e-03
3.055949887973152986e-03
3.037587455102661732e-03
3.037279183106518596e-03
3.054806699823721296e-03
3.065340037043188994e-03
3.053956672490139995e-03
3.035966461512959111e-03
3.035195925454742000e-03
3.050692680048927140e-03
3.058099100419567513e-03
3.043644138180725840e-03
3.023495101773837797e-03
3.021622879271906870e-03
3.036980218404060350e-03
3.045550507504397614e-03
3.033953087525814978e-03
3.017489037029484882e-03
3.017944382850695859e-03
3.032616883650208258e-03
3.037673272912977656e-03
3.020965403469882526e-03
2.998786497887146688e-03
2.993712842025311391e-03
3.004397770443435842e-03
3.008631697846812780e-03
2.994834459102908072e-03
2.978228904069800224e-03
2.979471546802890756e-03
2.995614821572067932e-03
3.003755314177473847e-03
2.992380469097667174e-03
2.977110254827685255e-03
2.978984347211134469e-03
2.995237208578361166e-03
3.002988907352045767e-03
2.990695083105777280e-03
2.973888455525545722e-03
2.973788520550770670e-03
2.988513954663591602e-03
2.996198425665917275e-03
2.985158516786429531e-03
2.969492421333883372e-03
2.969260274695943985e-03
2.983201211164141289e-03
2.991178402581485662e-03
2.982075576003299141e-03
2.968638430111315060e-03
2.969538662922112469e-03
2.983797721568358721e-03
2.992355682056438166e-03
2.984041306107870165e-03
2.970450912479510701e-03
2.969978215598964317e-03
2.982939500883281889e-03
2.991269503384746606e-03
2.982931258050257241e-03
2.968014362826332502e-03
2.965042179905969227e-03
2.976238004390965863e-03
2.984856353329884155e-03
2.977772704037819421e-03
2.963072555337583833e-03
2.959354203678472069e-03
2.971013190228184546e-03
2.982218454127996948e-03
2.977463372628187926e-03
2.961512978410794569e-03
2.952579309421604105e-03
2.957931430367522450e-03
2.964178103153142750e-03
2.955212863832562369e-03
2.934301167992369851e-03
2.920774122283337215e-03
2.925221321959218818e-03
2.936214125515437378e-03
2.936526616016467937e-03
2.926810912278964352e-03
2.924283577371498445e-03
2.938091961483405359e-03
2.955141373458671211e-03
2.956253603566967071e-03
2.941309756033362241e-03
2.929524279975307018e-03
2.934298055043179330e-03
2.946236631983554979e-03
2.946991157967125425e-03
2.934970669688860643e-03
2.927787695213335956e-03
2.938154066293168117e-03
2.956383959085350562e-03
2.963544815967170381e-03
2.957168028677593756e-03
2.954032388251864785e-03
2.966192882311274696e-03
2.983761253789429715e-03
2.988952253580192016e-03
2.982852539410974467e-03
2.988838945942423522e-03
3.028347023722985192e-03
3.100957408965672197e-03
3.192047578074222545e-03
3.291895254024112486e-03
3.395080079535343562e-03
3.479502855538207755e-03
3.499337789921737329e-03
3.412143038355089798e-03
3.212215406996311255e-03
2.931996468152689005e-03
2.615398160247519796e-03
2.299039472956773689e-03
2.019574104114805427e-03
1.824863301734164483e-03
1.758814673751946632e-03
1.828977792002162497e-03
1.997954458310238421e-03
2.213414070408553473e-03
2.441234842746011456e-03
2.664746162170270223e-03
2.862137377703963433e-03
3.002830643110401907e-03
3.072430207505914487e-03
3.090841463910182392e-03
3.094104198464779631e-03
3.099970839925921852e-03
3.100515222980901407e-03
3.088357667798514745e-03
3.077353933535361546e-03
3.087962553029508124e-03
3.118563146988905400e-03
3.144750977068743163e-03
3.149793110506940962e-03
3.145186359177527032e-03
3.152964828827894191e-03
3.174228989985089858e-03
3.187719993410458811e-03
3.180504977705381729e-03
3.167760130773458836e-03
3.173508913397045730e-03
3.198527927685842695e-03
3.219737637340320570e-03
3.222078622734056777e-03
3.218833429151509839e-03
3.232408598292652382e-03
3.262726366897950904e-03
3.287379571959567811e-03
3.293212491732323919e-03
3.295166072361561168e-03
3.315899773456797931e-03
3.354403478741369623e-03
3.387350311789745407e-03
3.401518960416709345e-03
3.412162788430190760e-03
3.441492228001368642e-03
3.487092561975774305e-03
3.524338581229305260e-03
3.539731116904362013e-03
3.549063429067821074e-03
3.575112292707648999e-03
3.615577800078108393e-03
3.645673021812043807e-03
3.651887193701692201e-03
3.650167506341279403e-03
3.663322348468369717e-03
3.689004421686636632e-03
3.702663454714690081e-03
3.691390345723926606e-03
3.671607730843304621e-03
3.665990973439669197e-03
3.671805446385521202e-03
3.664639850145349001e-03
3.632255243605738478e-03
3.591473537793814230e-03
3.564548109839612514e-03
3.547927491248898963e-03
3.517137777486954199e-03
3.461369035112579675e-03
3.399906844197813499e-03
3.357492512136133096e-03
3.332392745091435592e-03
3.300833436536557749e-03
3.251318581246638931e-03
3.201335104657399965e-03
3.173413902416557641e-03
3.163876712715406585e-03
3.147733174328717475e-03
3.113093912673381251e-03
3.077463336895746877e-03
3.063217659294921631e-03
3.066364185191339069e-03
3.062120772921160441e-03
3.039496303143829521e-03
3.016638856799575170e-03
3.015435417869766037e-03
3.030538067087154563e-03
3.035912118154455823e-03
3.020071522330261115e-03
3.001436301936879700e-03
3.002675834515498594e-03
3.019396652405418029e-03
3.026237178508151601e-03
3.011927414280296013e-03
2.994851264571345931e-03
2.997471549517930541e-03
3.015078495794699161e-03
3.022322684662317321e-03
3.008454913199116836e-03
2.992186640424471245e-03
2.995509607819668227e-03
3.013052112958135471e-03
3.019618915347031633e-03
3.005375112601810488e-03
2.989709411288077063e-03
2.994303435042931609e-03
3.012621970237901788e-03
3.018236203741147747e-03
3.000828226570616958e-03
2.980398895993118663e-03
2.980016321023301520e-03
2.994554332164619994e-03
2.998384610274089715e-03
2.981173582737280895e-03
2.962183551249099062e-03
2.963356626033718244e-03
2.978590499476254771e-03
2.981836851460451486e-03
2.962886588063403607e-03
2.941338308815810102e-03
2.939452363411230746e-03
2.951598572890075812e-03
2.952567080747973537e-03
2.933076185887140922e-03
2.913123048194513152e-03
2.914499987878378141e-03
2.930554925712813841e-03
2.935185088862287198e-03
2.918744195031003092e-03
2.901263281248745926e-03
2.904659448780176189e-03
2.922305009542483165e-03
2.927918174956738607e-03
2.911481198710544165e-03
2.892714157217180903e-03
2.893730093542847253e-03
2.908869598227876649e-03
2.913210506275000066e-03
2.897530974796125921e-03
2.881151707596704952e-03
2.885016627423279360e-03
2.902494223340145243e-03
2.908389776648105142e-03
2.893716535964489540e-03
2.878045421386630533e-03
2.882190114733364922e-03
2.899097609560031142e-03
2.903466966347552705e-03
2.886957240738639852e-03
2.870232807422799098e-03
2.874924726472682414e-03
2.894078860361711577e-03
2.901806418010711378e-03
2.888693319171031521e-03
2.874143245893461419e-03
2.878916663597999494e-03
2.896139238255727479e-03
2.900949733198980585e-03
2.885383507710703385e-03
2.870028241393959238e-03
2.875969747812572638e-03
2.895721668886490872e-03
2.903443269067517742e-03
2.890361620436552106e-03
2.876521439182823294e-03
2.882745497974761179e-03
2.901598785056760076e-03
2.907402563155317855e-03
2.891337927045959863e-03
2.873160344132324236e-03
2.873595747575521074e-03
2.885948958971613649e-03
2.886280108189324435e-03
2.867836569994216666e-03
2.851791214278855732e-03
2.858955176927689776e-03
2.881156378984498900e-03
2.891763916012314931e-03
2.881061474594276070e-03
2.868135986927494111e-03
2.873382388950493620e-03
2.889987605442401186e-03
2.893911494295544045e-03
2.878197524197801359e-03
2.863608763937291590e-03
2.870597377410274379e-03
2.891451316996044175e-03
2.901217809400044589e-03
2.892274727958096814e-03
2.884658045614577233e-03
2.897702749845525345e-03
2.922385784148077200e-03
2.933036117250005688e-03
2.922480329210633016e-03
2.912394929309530377e-03
2.925434771432610694e-03
2.959063690448041246e-03
2.997897467802270247e-03
3.045465040666821277e-03
3.126685800821725481e-03
3.252174161995495180e-03
3.389318043214560074e-03
3.478136847315718618e-03
3.474360001880565270e-03
3.371436676105446593e-03
3.183191175892231481e-03
2.920724678852142011e-03
2.600322725993500089e-03
2.267205225263726077e-03
1.991066456325854377e-03
1.827157605833680358e-03
1.785198143159339845e-03
1.840443972023830116e-03
1.968805454536411235e-03
2.159933228577802684e-03
2.395700122161170242e-03
2.631887050147399976e-03
2.817720250909176369e-03
2.934066289918009236e-03
3.001618996432611070e-03
3.047919587077517738e-03
3.076148961807575327e-03
3.074417628737882366e-03
3.047926463310493984e-03
3.025910615779720762e-03
3.031595340650450332e-03
3.055936796636583071e-03
3.071938467684056165e-03
3.070866379887538314e-03
3.071487910468574146e-03
3.090767529380823806e-03
3.117750699488791404e-03
3.127441186186706145e-03
3.115471145197386098e-03
3.105191477965917046e-03
3.116763542606265300e-03
3.140536053034775552e-03
3.151298056106049787e-03
3.143608209574854425e-03
3.139364973363507373e-03
3.157271695405272117e-03
3.186598621146153731e-03
3.201554376788989451e-03
3.196475941632894325e-03
3.193457090918199858e-03
3.212007223269932286e-03
3.242667926479754752e-03
3.260907534097605073e-03
3.261826488621452115e-03
3.267445718318117993e-03
3.296330499879748365e-03
3.337677098496986006e-03
3.365850373970207757e-03
3.375206185944721379e-03
3.387010277101084026e-03
3.418958385526773853e-03
3.459664045720928661e-03
3.483507027413352674e-03
3.485286914911927669e-03
3.486879032233361833e-03
3.506648943332585453e-03
3.533787311320046604e-03
3.543008774696408420e-03
3.529192928312148512e-03
3.514148869048843229e-03
3.516354173059039068e-03
3.525559477462252185e-03
3.517261213318223587e-03
3.486858511362971730e-03
3.455991348590634060e-03
3.442155179706253912e-03
3.434006101639114090e-03
3.406937505617727881e-03
3.357546643653186186e-03
3.309326150410518263e-03
3.281362806736648312e-03
3.263124850676731806e-03
3.230234441166907923e-03
3.179298360362784424e-03
3.133630053575428478e-03
3.112018386314573462e-03
3.103683098180736854e-03
3.083835065399171804e-03
3.048068901212391737e-03
3.018043720614495360e-03
3.010858067950769081e-03
3.014870211295776672e-03
3.005599695711615778e-03
2.979623693196352570e-03
2.959411778267493319e-03
2.962146251681369892e-03
2.975641135728037973e-03
2.974880394250645644e-03
2.956370402511738181e-03
2.942729943679974706e-03
2.951046249101490441e-03
2.968829968166972460e-03
2.971029513560886123e-03
2.954695169293141375e-03
2.943276355407382222e-03
2.954335313129288765e-03
2.975236023339763308e-03
2.980386234667270658e-03
2.966157549042755352e-03
2.955392350565643617e-03
2.965448321078203824e-03
2.984196963633505614e-03
2.987187311381632807e-03
2.971883907390854545e-03
2.961366206359944322e-03
2.972297025099339754e-03
2.991585594018963956e-03
2.994142791524763685e-03
2.977195073915165410e-03
2.963806955231186938e-03
2.970737238102187042e-03
2.985152711456603297e-03
2.982568584615580016e-03
2.961155209054516790e-03
2.944851066402701112e-03
2.950787449217666392e-03
2.965958018731054344e-03
2.965457206256913794e-03
2.946931076939853216e-03
2.933411155221621498e-03
2.940818548827507303e-03
2.955457825469692910e-03
2.952731470306793615e-03
2.931281617051928207e-03
2.915378290593265316e-03
2.921911738177985877e-03
2.937423208811510388e-03
2.936907105311018472e-03
2.918308335336850835e-03
2.905133900600137715e-03
2.913715992148986546e-03
2.930352476491234707e-03
2.929839530659162500e-03
2.909862330442871022e-03
2.893857778112136903e-03
2.898463689162959333e-03
2.910742659304346811e-03
2.906651429337912124e-03
2.884896563352226054e-03
2.869120923896438698e-03
2.875298198763745136e-03
2.889677870489047382e-03
2.887937343679479549e-03
2.868740851297604724e-03
2.855171408860570498e-03
2.862190193154820397e-03
2.875352786498815150e-03
2.870479282533386443e-03
2.847193988366774741e-03
2.829938939986986410e-03
2.834800570507459583e-03
2.847772158992031063e-03
2.844443881165979043e-03
2.823879684749843692e-03
2.809896691354551394e-03
2.818026679526102439e-03
2.833922727563023287e-03
2.832984710271031856e-03
2.813929608965575185e-03
2.800061757560194653e-03
2.806684986447782228e-03
2.819942388448873957e-03
2.816349473257624171e-03
2.795605586125203112e-03
2.781146270260316695e-03
2.787694531369390178e-03
2.800698731729929589e-03
2.796232029025053686e-03
2.774012555031616332e-03
2.757989037454511034e-03
2.763585313943671667e-03
2.776861910661805773e-03
2.774419199043030946e-03
2.756263029693516858e-03
2.745803782120026515e-03
2.756783607904691926e-03
2.773083670798685233e-03
2.769780103998998547e-03
2.746798448353987131e-03
2.728956909468537636e-03
2.732272223328594766e-03
2.742908491692075575e-03
2.737542214027983631e-03
2.716509573904882582e-03
2.703648045484582148e-03
2.713080514165302874e-03
2.729265673772982102e-03
2.728247008303587903e-03
2.710574372921926729e-03
2.700272697646782013e-03
2.711368304630382142e-03
2.728282535392831474e-03
2.727311854283814754e-03
2.710120409694400257e-03
2.704239853520032637e-03
2.731210930693111529e-03
2.786394707935898035e-03
2.855185331662001783e-03
2.937499589335311988e-03
3.041319775057279868e-03
3.150503224326525915e-03
3.212032861385270919e-03
3.168624555052340121e-03
3.003683604756022651e-03
2.746827227294351172e-03
2.440201494559775860e-03
2.114311046480978149e-03
1.800116199485026630e-03
1.549004003569588294e-03
1.419665087429184194e-03
1.437018256583652738e-03
1.572561871473845876e-03
1.773391069910564347e-03
2.004423018648697138e-03
2.252901376403265623e-03
2.498455695269377781e-03
2.699742369438503427e-03
2.823077852960782959e-03
2.876026380697716683e-03
2.897993199464417823e-03
2.916776601711980853e-03
2.926605385512511329e-03
2.913917286349920147e-03
2.891406052790043615e-03
2.890207003836686283e-03
2.920087549257918691e-03
2.954896642652707784e-03
2.966907429604309556e-03
2.963855401437296647e-03
2.975971227931046431e-03
3.009980675732834478e-03
3.036275844247392653e-03
3.030613381317052730e-03
3.011987494516614114e-03
3.018955687707608991e-03
3.052923139700348867e-03
3.069625646480927689e-03
3.037937917297590853e-03
2.987846753200931477e-03
2.977353718934107416e-03
3.018668326176599578e-03
3.064497356197773761e-03
3.074991891100646840e-03
3.072934826641973444e-03
3.109467292371331012e-03
3.187779216741449834e-03
3.253121629508378462e-03
3.265859240402076147e-03
3.256491182433513855e-03
3.284341993736324648e-03
3.355487223543474409e-03
3.414230952925513540e-03
3.421125327428072189e-03
3.408926013402684401e-03
3.437536588772219931e-03
3.509609354938552413e-03
3.564725162220409773e-03
3.561800294118357656e-03
3.535727268223788460e-03
3.548938912317434885e-03
3.604322323543438216e-03
3.640560170536553779e-03
3.617246523361631987e-03
3.571666583401051677e-03
3.567594741392534925e-03
3.606371224666940142e-03
3.623967003572929786e-03
3.579074680418402842e-03
3.510272457675801382e-03
3.482733927596890801e-03
3.498046390068359438e-03
3.492170229542321952e-03
3.424798852099487055e-03
3.336440333173700847e-03
3.293882019502339560e-03
3.299243542063223615e-03
3.288664415221105065e-03
3.222454207435268645e-03
3.141432907868166920e-03
3.111149349637063778e-03
3.131031405380748332e-03
3.134671153415396604e-03
3.081463679976206849e-03
3.012657766249156755e-03
2.994122878924210859e-03
3.024982062078022688e-03
3.038657317978767612e-03
2.995195321539693284e-03
2.936994181336947257e-03
2.930432868871132770e-03
2.973872449800695622e-03
2.999408079857851517e-03
2.966183551602760704e-03
2.916239386346422893e-03
2.915808336949775141e-03
2.963412727391834169e-03
2.991946638270110478e-03
2.961606892272033043e-03
2.914688105305421415e-03
2.916492853400490162e-03
2.964423853458132176e-03
2.991388998168381056e-03
2.958823467843908761e-03
2.910260842948369110e-03
2.911209900390606363e-03
2.958441126096450578e-03
2.984377361523515414e-03
2.950750347186876718e-03
2.901659772915145090e-03
2.902583625400316416e-03
2.949842703882093933e-03
2.975755635435900579e-03
2.942291494462026969e-03
2.893423864331549043e-03
2.893878784504051033e-03
2.939372908872574415e-03
2.962636462509952041e-03
2.926731378418679329e-03
2.876353052398085766e-03
2.876283408572127831e-03
2.922212458606967059e-03
2.947129707377385988e-03
2.914233461672464161e-03
2.867602209515808260e-03
2.870674326519157341e-03
2.917976966829582183e-03
2.942530841777061309e-03
2.908701188234118478e-03
2.861619228594554452e-03
2.864632073012403617e-03
2.911395395295399060e-03
2.934519921211914059e-03
2.899071236973784372e-03
2.851349626251283020e-03
2.855300191898362070e-03
2.904350478421450880e-03
2.930589838182823866e-03
2.898738665506866725e-03
2.854661960615410658e-03
2.861261422597322079e-03
2.910721000073242856e-03
2.934800242343196721e-03
2.899213120047303138e-03
2.851411609700152654e-03
2.855294508819885071e-03
2.902964841515679687e-03
2.925943138424013431e-03
2.890574138097415369e-03
2.845169353965864689e-03
2.853158056714879057e-03
2.904554344237135922e-03
2.928743397244618421e-03
2.891623277902266153e-03
2.842659561462620305e-03
2.846639753990912007e-03
2.894588479703247199e-03
2.917027907734889847e-03
2.880987049084993232e-03
2.835920768251132002e-03
2.844748476925521453e-03
2.895828177430838715e-03
2.918397865127984967e-03
2.880513397079198859e-03
2.833593484369120469e-03
2.841493902892029428e-03
2.891907886159185946e-03
2.912882836415155337e-03
2.872293638556120028e-03
2.822617623717964350e-03
2.828768963092026002e-03
2.878804126394543268e-03
2.900991348842635233e-03
2.863467955373818433e-03
2.818268642040027989e-03
2.828698030323752340e-03
2.880647595053032525e-03
2.900957773884665566e-03
2.857917877681445933e-03
2.804897758638174188e-03
2.806766176587074859e-03
2.850885684238103294e-03
2.865666032357079909e-03
2.820767585977440681e-03
2.769804759810712020e-03
2.776270227429411628e-03
2.825394722466682568e-03
2.844314636103864157e-03
2.803113572159617733e-03
2.756810734064688538e-03
2.769582739574266445e-03
2.825606848701461143e-03
2.850073500989064312e-03
2.811793672614830084e-03
2.765614194789074633e-03
2.776133614524160798e-03
2.828420380796072085e-03
2.849235831552749711e-03
2.809165212117152588e-03
2.763822936979899465e-03
2.776928506662220113e-03
2.831941856534721334e-03
2.854940335720553175e-03
2.817273616964717075e-03
2.775541209096699016e-03
2.793259900997565378e-03
2.852620736413615139e-03
2.878662759767308676e-03
2.842915878841882193e-03
2.803903202745988785e-03
2.830008203397346451e-03
2.912630710918663601e-03
2.988621806336817961e-03
3.036557740002598753e-03
3.107739506405950147e-03
3.244487759883331931e-03
3.396088021679478323e-03
3.450599937847183968e-03
3.347633887553589250e-03
3.127832784219653287e-03
2.861861894921285780e-03
2.565978011877936144e-03
2.221117248919962216e-03
1.859723026536407812e-03
1.587059561599522568e-03
1.493471248664693558e-03
1.566307929989931057e-03
1.717270523400651287e-03
1.888820212609466746e-03
2.098113357318092190e-03
2.366238205651550151e-03
2.640802814286919830e-03
2.828048603517501706e-03
2.896070360825175449e-03
2.908369394219260592e-03
