5.173084004763866053e-04
3.932423931924468362e-04
2.867096024312083347e-04
2.100133671854013571e-04
1.670478076198317439e-04
1.535600068437943980e-04
1.600183871941377530e-04
1.754337332646170881e-04
1.905699070886028774e-04
1.997161794279445719e-04
2.009720167718203959e-04
1.954490902963252317e-04
1.859223326249298373e-04
1.754388845785988563e-04
1.663091322406014543e-04
1.597125735798960409e-04
1.558528235796741829e-04
1.543540053047638640e-04
1.545916248245833330e-04
1.558644822634931346e-04
1.574959530911794470e-04
1.589358549097447712e-04
1.598230477878857271e-04
1.599625554223833900e-04
1.592733684668109139e-04
1.578013719230530673e-04
1.557913800939906375e-04
1.537114175422479346e-04
1.521663268894450302e-04
1.517634068602772028e-04
1.530143483705291021e-04
1.562314852686575621e-04
1.612842425827288434e-04
1.672089430466454829e-04
1.719414914888990305e-04
1.725833360768800544e-04
1.664254742199074220e-04
1.525478071414238489e-04
1.334487679199863213e-04
1.159990832330307363e-04
1.110390313979013876e-04
1.311490014837735541e-04
1.866321230291693967e-04
2.805910868926862539e-04
4.048492228983769335e-04
5.387577061388075343e-04
6.522082781074384867e-04
7.126086397176415897e-04
6.939242081485338422e-04
5.849284625448400703e-04
3.938646301135147057e-04
1.477191443039207683e-04
-1.139831974436035907e-04
-3.489754274124636153e-04
-5.223582722923501278e-04
-6.137818652971864259e-04
-6.199423838144615040e-04
-5.526131774599787622e-04
-4.337464500202109735e-04
-2.894350030292600529e-04
-1.441862454985272466e-04
-1.660335117525520653e-05
8.278667306745985624e-05
1.514063187945519887e-04
1.927576351240971656e-04
2.137750764713363760e-04
2.222857248235947706e-04
2.251009208771064451e-04
2.269375866050154838e-04
2.301737658636040552e-04
2.352887819652383847e-04
2.416736033856483321e-04
2.484187531173416346e-04
2.548035215962389174e-04
2.604571468184160030e-04
2.653362906593471448e-04
2.696485838432396412e-04
2.737462133062865924e-04
2.779812481861848811e-04
2.825770755727515090e-04
2.876030808834956383e-04
2.930630207973081939e-04
2.990051987296771653e-04
3.055656023648940138e-04
3.129551640288204891e-04
3.214587130031127120e-04
3.314517218738134599e-04
3.433634603243156786e-04
3.575542394926503197e-04
3.741929899623091475e-04
3.932514240802340976e-04
4.146094156671108395e-04
4.381363670760735247e-04
4.636406562994520395e-04
4.907309722506108434e-04
5.187236860923809473e-04
5.466653839622686618e-04
5.734276251877736723e-04
5.978184057245452838e-04
6.187245875957292016e-04
6.353112055423587980e-04
6.472103778791981525e-04
6.545610905087395105e-04
6.578360821537761541e-04
6.575549869149403684e-04
6.540594743087499571e-04
6.474445029206431224e-04
6.376091209705098952e-04
6.243523676171431084e-04
6.074948801954271589e-04
5.870343394851853559e-04
5.632852286965854983e-04
5.369048392589074277e-04
5.087734025497433381e-04
4.798219082384356984e-04
4.509308083849446983e-04
4.229145208651907510e-04
3.964977245297502100e-04
3.722192034326173449e-04
3.503251729958426039e-04
3.307656352288689721e-04
3.133114611636882195e-04
2.976913671375600924e-04
2.836587962894703972e-04
2.710102229106468863e-04
2.596256066798454483e-04
2.495245252558374598e-04
2.408515407600626932e-04
2.337545388548811244e-04
2.282492925570947094e-04
2.242004991806634403e-04
2.214331948559015344e-04
2.198538853420706218e-04
2.194655151882852757e-04
2.202863636734278909e-04
2.222694275103028296e-04
2.252745805504230002e-04
2.290593995606414804e-04
2.332595026950785811e-04
2.374088478009749460e-04
2.410608987691299744e-04
2.439604416335615508e-04
2.461202617574742113e-04
2.477234429339635275e-04
2.489420566963311586e-04
2.498344663954407620e-04
2.503769652585942623e-04
2.505450075169561542e-04
2.503503185067958484e-04
2.498366072256250590e-04
2.490842639039529465e-04
2.482162363517061610e-04
2.473429778128315767e-04
2.464424940933319323e-04
2.452815020989556455e-04
2.434857567250574978e-04
2.407286696132491838e-04
2.368872292110912393e-04
2.320597555528079085e-04
2.264880123014219836e-04
2.204914121191188200e-04
2.144418198889863766e-04
2.087155538880555619e-04
2.035902935178824107e-04
1.991598804792231903e-04
1.953575033548007997e-04
1.920664840172558140e-04
1.892022089756464345e-04
1.866989408391455036e-04
1.844652953467982638e-04
1.824076069243015235e-04
1.805149438699607599e-04
1.788988047033192861e-04
1.777232406279312014e-04
1.770897654152277928e-04
1.769857554578754832e-04
1.773157267504660327e-04
1.779402098596908168e-04
1.786700140232678937e-04
1.792590547526138462e-04
1.794619148491429287e-04
1.791315744212963257e-04
1.782539012853446311e-04
1.768717829705289553e-04
1.749837771972013729e-04
1.725338203001476015e-04
1.694891121305327672e-04
1.658911915083006333e-04
1.618141546995360651e-04
1.573019658871394662e-04
1.523882876367115599e-04
1.471897005032840036e-04
1.419690242625292777e-04
1.371093362678744716e-04
1.330410451025314396e-04
1.301772408820164656e-04
1.288343941898938681e-04
1.290880895795977490e-04
1.306130865385595396e-04
1.326629022147059916e-04
1.342869429777599312e-04
1.346893439157573473e-04
1.335187703190902854e-04
1.309715694317368877e-04
1.277558013176901392e-04
1.249828174232438564e-04
1.239391606459363257e-04
1.256752565176374862e-04
1.305203909930177653e-04
1.377752564956802198e-04
1.457295468547237900e-04
1.519487021300828101e-04
1.537811814776845207e-04
1.492216135776985777e-04
1.382182320368107559e-04
1.240414667445789406e-04
1.138414159294474963e-04
1.175976188373028457e-04
1.453539718497813982e-04
2.034152911835716425e-04
2.906363865167533775e-04
3.961231329492251579e-04
4.996935974642861085e-04
5.759419595557526252e-04
6.012947413079209116e-04
5.615897207112792097e-04
4.569107150363759082e-04
3.016065473646441144e-04
1.198478422884745017e-04
-6.100451538847952106e-05
-2.165655488381835027e-04
-3.293899632283425467e-04
-3.903963769615860719e-04
-3.985166645564063958e-04
-3.595794803130687852e-04
-2.848720253644122097e-04
-1.892035774846251804e-04
-8.829974255850005661e-05
4.115750901775732392e-06
7.873741152608882906e-05
1.317822496911006606e-04
1.644465085362088882e-04
1.811105601410633128e-04
1.872544899269272132e-04
1.879764542240221009e-04
1.873169289086600952e-04
1.879813313353900751e-04
1.911370842602268304e-04
1.964649852748016955e-04
2.027537194181000318e-04
2.088124144289487110e-04
2.140441860852087511e-04
2.183385014543512371e-04
2.216645519828996252e-04
2.239624334136378189e-04
2.253867159871571766e-04
2.264248944205649277e-04
2.276125522488031130e-04
2.291852512143484994e-04
2.311483765402357082e-04
2.336886007292073887e-04
2.373641751805546864e-04
2.427885968082870555e-04
2.502018136069253471e-04
2.594714709213723149e-04
2.704738910727158010e-04
2.832943881734787273e-04
2.979772138588204062e-04
3.142376558890970289e-04
3.316352007092492342e-04
3.500326832254902474e-04
3.696764357076421552e-04
3.906780850779138325e-04
4.125059618739544774e-04
4.341391205333501179e-04
4.546670593421404298e-04
4.735147032952346786e-04
4.900219799357213163e-04
5.030898658187656081e-04
5.116113585135409350e-04
5.153305367134161565e-04
5.150654747121947812e-04
5.119304906919307317e-04
5.064371092417756627e-04
4.984876776890553038e-04
4.881065989073773374e-04
4.758396562725947894e-04
4.622932907778132998e-04
4.475068293739095236e-04
4.310844434382237302e-04
4.129740495766021893e-04
3.939044187371632585e-04
3.749430804089906957e-04
3.567631032070284940e-04
3.394997256439362659e-04
3.232231890377067446e-04
3.082662384368629925e-04
2.949501761781554926e-04
2.831464099898488903e-04
2.723419316917974971e-04
2.621721130559785022e-04
2.527480324750767861e-04
2.443994634648056119e-04
2.372395825980119712e-04
2.311488804538810299e-04
2.261440396171407940e-04
2.225438030979474784e-04
2.206295549038797543e-04
2.202153461642652804e-04
2.206991872777781740e-04
2.215461601478018762e-04
2.225967487468861691e-04
2.238534318898712644e-04
2.251128662974736659e-04
2.260007071621895826e-04
2.263819821075896703e-04
2.265818228633768069e-04
2.271037902343573181e-04
2.282125255953999560e-04
2.299013197686349311e-04
2.321897812156754513e-04
2.352187253012880336e-04
2.389173004623151603e-04
2.426861424497414696e-04
2.456153907617155460e-04
2.470888485101090885e-04
2.471041479646029159e-04
2.459822910328542328e-04
2.439040063466207399e-04
2.408789640671123893e-04
2.371181607587128216e-04
2.332162945157361647e-04
2.298176633093605616e-04
2.271522554860756239e-04
2.250111081625889430e-04
2.231490382749692274e-04
2.215644706274706103e-04
2.203310671950421077e-04
2.193002229697330269e-04
2.181492125856048826e-04
2.167139062027437820e-04
2.150920756255298794e-04
2.132936326755794395e-04
2.108701100267299877e-04
2.070772275887485295e-04
2.015163367444724215e-04
1.946343559832375508e-04
1.876306892211134403e-04
1.819328400473983341e-04
1.786646373767589928e-04
1.782834053613669507e-04
1.803758765651669485e-04
1.837394780669521113e-04
1.868874479381529071e-04
1.887318882664838922e-04
1.889104944007845050e-04
1.875428335487930732e-04
1.848079721799969000e-04
1.808549169654606072e-04
1.760419784984533422e-04
1.710475242986849971e-04
1.665971136229697205e-04
1.631019426283823823e-04
1.606335940808952954e-04
1.592033590227443277e-04
1.589154161070166060e-04
1.597717405580725055e-04
1.614238589928805720e-04
1.632701598444726465e-04
1.648408820022801856e-04
1.660246847661164447e-04
1.669064829780597041e-04
1.675090546656370191e-04
1.678386209694752366e-04
1.681767939356914655e-04
1.691707922504237201e-04
1.714934669610144720e-04
1.753763324569305928e-04
1.804406031993292987e-04
1.858254183476732661e-04
1.902742676638680813e-04
1.920987638270928329e-04
1.894392827706480834e-04
1.812227831525420373e-04
1.685484095723010416e-04
1.556274688633220069e-04
1.495282554862124359e-04
1.586303480487695375e-04
1.901749966079648675e-04
2.473872444570843578e-04
3.268081959544538815e-04
4.169691278412068574e-04
4.997242499237610500e-04
5.546010996511752762e-04
5.647317185193505285e-04
5.218101205059698334e-04
4.281716099507356212e-04
2.958174925631236745e-04
1.434048698121162383e-04
-7.692179614612098802e-06
-1.374380147402541369e-04
-2.305894859349848886e-04
-2.789221537856858700e-04
-2.819084912869624314e-04
-2.458911211618423128e-04
-1.820591377506244782e-04
-1.037216304909860853e-04
-2.350254919428540544e-05
4.888902006326068314e-05
1.077892295490910060e-04
1.514284133504790358e-04
1.808331087846175257e-04
1.985160411692686046e-04
2.075716445459959304e-04
2.112059534515190254e-04
2.123097687237244493e-04
2.129134120882463790e-04
2.138723871356489655e-04
2.151561607982257389e-04
2.165355608083501839e-04
2.180332390893126835e-04
2.198162339401304620e-04
2.218825676144773804e-04
2.240563031228330788e-04
2.262839099470550174e-04
2.287656533186531330e-04
2.316920485104211340e-04
2.349415880234725646e-04
2.381927723986105921e-04
2.413499973694859056e-04
2.447391522674615002e-04
2.488248875300412425e-04
2.538411945585589721e-04
2.598225383928760108e-04
2.669392430552084469e-04
2.755996828892992145e-04
2.861136363769588905e-04
2.983557783733743664e-04
3.119030066704546467e-04
3.264665759284237408e-04
3.420134130203077941e-04
3.584029527466308989e-04
3.750793986208844069e-04
3.913298447098953947e-04
4.068267019837823527e-04
4.217055744085000148e-04
4.359972128138346224e-04
4.491198842614694880e-04
4.601189278392645412e-04
4.683766996288841805e-04
4.738876126475871056e-04
4.767713696999972524e-04
4.767220980426246989e-04
4.731745584690407402e-04
4.659934404988077270e-04
4.557829787725435448e-04
4.434259872132613922e-04
4.294785789273667764e-04
4.141844335794557627e-04
3.979771048550834796e-04
3.816663686672027377e-04
3.659648077000600278e-04
3.509443391125228995e-04
3.361419913944946889e-04
3.212045309769246564e-04
3.062971367604092835e-04
2.918545645359533862e-04
2.781004087505605090e-04
2.649762049862891653e-04
2.524928269196959605e-04
2.409501056693928072e-04
2.307122613827716513e-04
2.218797326751898271e-04
2.143361789449205700e-04
2.081039049001479871e-04
2.034922750105622516e-04
2.007954890471588935e-04
1.999082556539795105e-04
2.003431899038576837e-04
2.016062068748835235e-04
2.034412881305459582e-04
2.056857363246245571e-04
2.080397295932406724e-04
2.101606702551583211e-04
2.119995126862679656e-04
2.139014966560657584e-04
2.162671784995980995e-04
2.191520158010830898e-04
2.222728216930568873e-04
2.253559289936143755e-04
2.283341616878266605e-04
2.311597360542179153e-04
2.335743339814358606e-04
2.352538677812427976e-04
2.362065333454871677e-04
2.368982221283994220e-04
2.378854343995751930e-04
2.393518267070625404e-04
2.410483828024851587e-04
2.426129960818039402e-04
2.438111345667377176e-04
2.444429250774493643e-04
2.441699509798407456e-04
2.426218694116124663e-04
2.397317326473639727e-04
2.359027724088592502e-04
2.317918033236801361e-04
2.279459650297798964e-04
2.246540742120018265e-04
2.220430806030343398e-04
2.201446172798422838e-04
2.187851383724168097e-04
2.174995224364082477e-04
2.157137874377675784e-04
2.131018143513388225e-04
2.097621965158635068e-04
2.060512540219316187e-04
2.023038953344569418e-04
1.987590845922776667e-04
1.956894548501955427e-04
1.934558439672139963e-04
1.923337239305794263e-04
1.922967428509475064e-04
1.930204457439609121e-04
1.940850729708995417e-04
1.951119801333956784e-04
1.957025548121770397e-04
1.953636207006710028e-04
1.936461950620119350e-04
1.904242403440354638e-04
1.860084849107570680e-04
1.809541516398042722e-04
1.757757841371427807e-04
1.708654713163144522e-04
1.666207040417026504e-04
1.635143240962525955e-04
1.619359676336123565e-04
1.619555205231250404e-04
1.632723083740857117e-04
1.653848303078190825e-04
1.677691069528457625e-04
1.699138870790858305e-04
1.713144820254874977e-04
1.715976646288842672e-04
1.707371324956442730e-04
1.691360253304254892e-04
1.674711998802534717e-04
1.664522150879673053e-04
1.666833835854621571e-04
1.685852636299796218e-04
1.721811453611845797e-04
1.767422562462741956e-04
1.806060850332087849e-04
1.815198554733321145e-04
1.775321247648317332e-04
1.681039569507350299e-04
1.550454919569481643e-04
1.430059306586523330e-04
1.392662607027466131e-04
1.524991502255436794e-04
1.903089717189756917e-04
2.559615695323707251e-04
3.454412125762719487e-04
4.462038562906980128e-04
5.384582043718668829e-04
5.989059573180313244e-04
6.062072446195225462e-04
5.470536946248833647e-04
4.212527380062102865e-04
2.438032418238773663e-04
4.242546625306942544e-05
-1.492475207339247602e-04
-3.005317082112980774e-04
-3.912924625747517303e-04
-4.156175876942244099e-04
-3.807987823893331796e-04
-3.029054545495323599e-04
-2.012849667028538672e-04
-9.397367671019080256e-05
5.110402893740478354e-06
8.725210784497517574e-05
1.487542936766339475e-04
1.900016936976932271e-04
2.142052295582383577e-04
2.260751880153362165e-04
2.305399362472226085e-04
2.316805835355729211e-04
2.321512031422035189e-04
2.332256626768573348e-04
2.352682812046983187e-04
2.382177712543381311e-04
2.418377333371987280e-04
2.458113823064002096e-04
2.498550169672834800e-04
2.538376455878199947e-04
2.577525705089685529e-04
2.615304675702317169e-04
2.649194518616840451e-04
2.676269593080513195e-04
2.696112894471648625e-04
2.712119328758901861e-04
2.729858358763605350e-04
2.754517524361918741e-04
2.790122278905819253e-04
2.840564791811364263e-04
2.910197666444902412e-04
3.002816045737708816e-04
3.120449220512800368e-04
3.263616148130218920e-04
3.432248146369019817e-04
3.625155332396440581e-04
3.838080626545604902e-04
4.063149136302495390e-04
4.291475188477930744e-04
4.516532658345878432e-04
4.734294954332227503e-04
4.940011620762439076e-04
5.126130822970023085e-04
5.284753378657361866e-04
5.411987673273296103e-04
5.508621132415083459e-04
5.576020410956076352e-04
5.612427088024106361e-04
5.614355925897597001e-04
5.581030605179585977e-04
5.515762413038824939e-04
5.422337246053405028e-04
5.301205604033298879e-04
5.150539360119921065e-04
4.970822807205790882e-04
4.767231023041642408e-04
4.547199622781639117e-04
4.316685697910489935e-04
4.079651699197412969e-04
3.840508559951009569e-04
3.605403771649396479e-04
3.380180902480702356e-04
3.167488513903670040e-04
2.966669948671281408e-04
2.776606586056686943e-04
2.598377843790656725e-04
2.435361412584499045e-04
2.291595091048496599e-04
2.170569838541317668e-04
2.074945901087531925e-04
2.005925245615745227e-04
1.961778827669667191e-04
1.937050289137624598e-04
1.924099455207839491e-04
1.916362820682458962e-04
1.910822123948217801e-04
1.908059285999978672e-04
1.910734849941789779e-04
1.922290257066469133e-04
1.946280898706456957e-04
1.985305688333423118e-04
2.039167051582392045e-04
2.103667861296888502e-04
2.171588147874540695e-04
2.235335409644485457e-04
2.289100561083605542e-04
2.329275453936294974e-04
2.354122986023404198e-04
2.364165873801555087e-04
2.362909633694070910e-04
2.356161781194477279e-04
2.349526506590218560e-04
2.345950358377819466e-04
2.345271218957094002e-04
2.345440178548954552e-04
2.343540760731738963e-04
2.335870185920601813e-04
2.318323858976987638e-04
2.288171715213110175e-04
2.246142343253605352e-04
2.196622495078384338e-04
2.145503572954478235e-04
2.097681104040614235e-04
2.056261646003145112e-04
2.023175409998526986e-04
1.999308313185188979e-04
1.983464162724825363e-04
1.971652546988970239e-04
1.958317465365354054e-04
1.938962083144171093e-04
1.911981849081475582e-04
1.878439245197190111e-04
1.840718343096769071e-04
1.801711958046934702e-04
1.764807840834015497e-04
1.733608979445726273e-04
1.710847002838880376e-04
1.697375221427057182e-04
1.692294167640610489e-04
1.693903686476601984e-04
1.700235204255251791e-04
1.708729329692074508e-04
1.716031628983382816e-04
1.718874545727232023e-04
1.715525039162837278e-04
1.706284702217566128e-04
1.692405216655712809e-04
1.674486997347938706e-04
1.651885814248406240e-04
1.623419286295731232e-04
1.588382837702733514e-04
1.547028147854662258e-04
1.500721850052382704e-04
1.452383570317634552e-04
1.406986847247595855e-04
1.371101592672971251e-04
1.350937697472136712e-04
1.349749550735039247e-04
1.366201711519897464e-04
1.394557257119073419e-04
1.426253868841566394e-04
1.451987300928085851e-04
1.463907937198968140e-04
1.457800690490198962e-04
1.434643004709908285e-04
1.400637322774342505e-04
1.365538321405848513e-04
1.340202071579334338e-04
1.334435286060593046e-04
1.355202711959529321e-04
1.404394079276521760e-04
1.475953781816016612e-04
1.553818041153265796e-04
1.613058231165462916e-04
1.625854637975981487e-04
1.572020208649701556e-04
1.451867653205489884e-04
1.297595864256656116e-04
1.177976885164337375e-04
1.190742732737761042e-04
1.439411482925846968e-04
1.997093166936283614e-04
2.867093859370785282e-04
3.954893218820850127e-04
5.065216126147323913e-04
5.931624381057296969e-04
6.276818688223015884e-04
5.891442531780919853e-04
4.708761266817189980e-04
2.846644582260998159e-04
5.942716542167337406e-05
-1.658889728600558013e-04
-3.528748928834714066e-04
-4.737384452268521545e-04
-5.172050379132957319e-04
-4.886195732773270092e-04
-4.053250506630415241e-04
-2.900930107019507212e-04
-1.652356245971964863e-04
-4.868597267543539305e-05
4.787782444565390661e-05
1.192655940296557778e-04
1.658195578849648881e-04
1.917323103442847624e-04
2.031049440321804566e-04
2.061636131492959145e-04
2.059634977802416746e-04
2.057731720771099361e-04
2.071237907106744289e-04
2.102865184813326683e-04
2.148506282011187194e-04
2.201770000016072242e-04
2.256827945210073609e-04
2.310008185394464867e-04
2.360238431213723600e-04
2.408197246212676924e-04
2.454746632129717657e-04
2.500011748206790586e-04
2.543956914154178999e-04
2.587729957697306642e-04
2.634263645143071204e-04
2.687651115978398212e-04
2.752287541364586043e-04
2.832687459723124443e-04
2.933446667441310589e-04
3.058251436590329864e-04
3.208186516702313988e-04
3.381004048483160366e-04
3.572214553898269362e-04
3.776619662855900642e-04
3.988452349202456851e-04
4.200745267855466518e-04
4.406552324004577937e-04
4.602507926613971789e-04
4.790881356223532098e-04
4.976135074747739485e-04
5.158026380534731130e-04
5.328575043758182082e-04
5.476916732951780725e-04
5.596916269476374332e-04
5.688915014808737253e-04
5.754313485178207772e-04
5.790690773472947830e-04
5.793885789450731053e-04
5.763582142345548059e-04
5.703972979723871553e-04
5.617937851283067623e-04
5.502462977543454885e-04
5.351932512163297450e-04
5.165745733386839338e-04
4.951113692941309843e-04
4.718150658613070171e-04
4.473877944318410487e-04
4.222110051516740907e-04
3.967781592578988894e-04
3.718823703528775174e-04
3.482908713837376416e-04
3.263629252936373006e-04
3.061075468058470361e-04
2.875505877990288750e-04
2.708885522402957008e-04
2.562531256294136792e-04
2.434677510665353862e-04
2.321770477497123565e-04
2.222076581441145198e-04
2.137082157278460764e-04
2.069171588236943333e-04
2.018798828611473848e-04
1.984483033147303147e-04
1.964761868979761610e-04
1.958767220068260366e-04
1.964598137254197662e-04
1.978325652148859074e-04
1.995899988057859794e-04
2.016081816575203639e-04
2.040627867416928694e-04
2.071227666840176097e-04
2.106853000190887890e-04
2.144567801009345279e-04
2.182237965968852444e-04
2.219245751234542841e-04
2.254402694863604558e-04
2.284437430564888920e-04
2.305811515065428192e-04
2.317914155674776367e-04
2.323425830564800694e-04
2.325147944079505717e-04
2.323234370111335978e-04
2.316195322806347630e-04
2.304001367876405031e-04
2.288939332862640046e-04
2.273117128717698401e-04
2.256135457266265909e-04
2.236134405601363341e-04
2.212746993240750578e-04
2.187952370769964162e-04
2.163818503321440539e-04
2.140392763014581823e-04
2.116633291438113640e-04
2.092869552819361979e-04
2.071030772826707269e-04
2.051968621963587880e-04
2.033394951270346674e-04
2.011443012330320595e-04
1.984251032497278712e-04
1.953447610514105770e-04
1.922260788043460636e-04
1.893170259496960225e-04
1.867940250390230747e-04
1.848953032479039988e-04
1.838716191544698564e-04
1.837179654665726993e-04
1.840184750037738215e-04
1.841657837173846593e-04
1.837683741610210745e-04
1.828219332246247238e-04
1.815123849512043151e-04
1.799533726863277654e-04
1.781734125790988452e-04
1.762788960882826861e-04
1.744849914214582811e-04
1.729330630626297769e-04
1.715492680604270527e-04
1.701542191482351737e-04
1.686706838933833808e-04
1.671183400013788391e-04
1.653777841829965050e-04
1.630624561330841352e-04
1.597563888118374014e-04
1.554333824322001528e-04
1.506314484637100441e-04
1.462179319043119101e-04
1.430010566046256584e-04
1.415046435231545564e-04
1.419134746495997839e-04
1.439920475343900387e-04
1.469626798943462738e-04
1.495982085290685243e-04
1.506867304100727840e-04
1.496158989391651543e-04
1.466259253173576209e-04
1.425820503312831523e-04
1.385666021422924223e-04
1.356488585623509470e-04
1.348331232781663496e-04
1.369105123556829066e-04
1.420946105574883008e-04
1.496632500753009281e-04
1.578973872184153142e-04
1.643605806720370975e-04
1.663932925849470515e-04
1.618307725565071710e-04
1.500897609920224954e-04
1.334987984040569126e-04
1.181923297582191941e-04
1.136570064034254240e-04
1.304822586501053368e-04
1.767212027077995655e-04
2.539272216194529697e-04
3.541851332678115790e-04
4.594756529522683050e-04
5.444662181628457135e-04
5.828731354962611577e-04
5.557748324803528633e-04
4.586300478233099466e-04
3.037263284798462815e-04
1.167888380321437276e-04
-7.069353195821674314e-05
-2.300392984648684047e-04
-3.415828134833296856e-04
-3.969429828582789308e-04
-3.978376451175227218e-04
-3.531879463292855281e-04
-2.761430004281311247e-04
-1.816287566304228154e-04
-8.420249166695236809e-05
3.993376172224794205e-06
7.491147247859790068e-05
1.253905380355650387e-04
1.567271277610575442e-04
1.731743680055744246e-04
1.800020421002503578e-04
1.819280101494778670e-04
1.823858685383289544e-04
1.834738977269089746e-04
1.861186366454258944e-04
1.902297741890774405e-04
1.949985702571251772e-04
1.994563587025704771e-04
2.030311412916660312e-04
2.057006031902020363e-04
2.077110748196224390e-04
2.092681241652109391e-04
2.105371479118289509e-04
2.118183713367200913e-04
2.135240514354489014e-04
2.158988301326546862e-04
2.188379980002423350e-04
2.220821515614544868e-04
2.255902527991652683e-04
2.296682571576382664e-04
2.347649046634878568e-04
2.412724626270968179e-04
2.495954850556619483e-04
2.602901823495344961e-04
2.739056581276970480e-04
2.905620954706958164e-04
3.097379148405011301e-04
3.305590710802665277e-04
3.522672829002753835e-04
3.743191709013624709e-04
3.960831746980055012e-04
4.166771950494460586e-04
4.353011531306071242e-04
4.516746394810981736e-04
4.659360282836623240e-04
4.780343014752347071e-04
4.873761760991928219e-04
4.932302310524258821e-04
4.954078078879131522e-04
4.943493793546759746e-04
4.905111582395906000e-04
4.838659219313030989e-04
4.741677597351652974e-04
4.616028426865431884e-04
4.469399164189117148e-04
4.309700235740291513e-04
4.139554049475447110e-04
3.957587582894528367e-04
3.764123768351456756e-04
3.563596064687811677e-04
3.361144494564851466e-04
3.158760196003089884e-04
2.956389234464269961e-04
2.756228951016070905e-04
2.564185595663300227e-04
2.386531708109387916e-04
2.226174443265454053e-04
2.083076187437763989e-04
1.957626505505374176e-04
1.852148201525390147e-04
1.768691673647738581e-04
1.706301812756803231e-04
1.661306714571849480e-04
1.629907334568620142e-04
1.609543340620553527e-04
1.597773940410983872e-04
1.591219066841316877e-04
1.587006833019902479e-04
1.585351987593754260e-04
1.589761544801692069e-04
1.604005621150232522e-04
1.628935266077502183e-04
1.662253487049704587e-04
1.700575055427052339e-04
1.740711937883834598e-04
1.779126638769246659e-04
1.811723339398670573e-04
1.835791649130020760e-04
1.852388768151521997e-04
1.865881320684995384e-04
1.880378700147822518e-04
1.896576198081897479e-04
1.911988891652594144e-04
1.923404742696595878e-04
1.928197839033250088e-04
1.923612640182244889e-04
1.906470521381863797e-04
1.875194078207257080e-04
1.832451452862720112e-04
1.785149898362967005e-04
1.741171319655444763e-04
1.705699986348477206e-04
1.679962714061221678e-04
1.662168738788266241e-04
1.648598322134157219e-04
1.634156883182192146e-04
1.613659740009300509e-04
1.584453032774746448e-04
1.548540570310883802e-04
1.511811134774757222e-04
1.480542167586546205e-04
1.458113916665491861e-04
1.444427146531375547e-04
1.437523992069593480e-04
1.435085772997387568e-04
1.434713620524990878e-04
1.434022726523270872e-04
1.431581143838340565e-04
1.427849394104105656e-04
1.424515143705705326e-04
1.422338635212971566e-04
1.419578535495448284e-04
1.412545327389870932e-04
1.397476090439231388e-04
1.371817641862892265e-04
1.334385421281046884e-04
1.285577083896950030e-04
1.228438315202844339e-04
1.169518025321640814e-04
1.117805048782794463e-04
1.081675111943921513e-04
1.065751301758704106e-04
1.069557703237395920e-04
1.088090924270235894e-04
1.113260672516535303e-04
1.135697601997482400e-04
1.147253783693524479e-04
1.143910217269125966e-04
1.127460977984063033e-04
1.104524922596121338e-04
1.083580047366348802e-04
1.072409042299519245e-04
1.077371551659831188e-04
1.103345846620348549e-04
1.152196739004825052e-04
1.219529165381595502e-04
1.292098185441156017e-04
1.348688868033549892e-04
1.365389745482279099e-04
1.324215078143504097e-04
1.223376491175095853e-04
1.087056255324164299e-04
9.708867583753071745e-05
9.576708411777217541e-05
1.139227849067536176e-04
1.585766982636902303e-04
2.311146855999881417e-04
3.246507079494979106e-04
4.234037939621259554e-04
5.048232199596059235e-04
5.445311710703241471e-04
5.232112830750584994e-04
4.334067295590658870e-04
2.834570113103612645e-04
9.642470515657887745e-05
-9.605407632241048086e-05
-2.626548942763485260e-04
-3.804084147839591266e-04
-4.389674697725165823e-04
-4.402349002419572743e-04
-3.947303503714069467e-04
-3.171293092593704239e-04
-2.227792598122748193e-04
-1.255593632566269762e-04
-3.657216924770759968e-05
3.673802318926429013e-05
9.099804128054125320e-05
1.266489012285453074e-04
1.469888309325998767e-04
1.567573370284928048e-04
1.606996261486178326e-04
1.625533814123445386e-04
1.646566238077674081e-04
1.680406980434222698e-04
1.727256588285579902e-04
1.780613477639931685e-04
1.831280491555927490e-04
1.871795841890312338e-04
1.899482947938380269e-04
1.916264553194496764e-04
1.925859652999112391e-04
1.931284687853565465e-04
1.934802039624251532e-04
1.939458289725582416e-04
1.949776588714358582e-04
1.970687594732500273e-04
2.006076790873271957e-04
2.058391320315363445e-04
2.128907271564172224e-04
2.217437351567568351e-04
2.321701132180304316e-04
2.437994087497766488e-04
2.563633578167694984e-04
2.699078837086090594e-04
2.847278718744599172e-04
3.010721308063073480e-04
3.189294935200406118e-04
3.380798141843969584e-04
3.582267084117870854e-04
3.789306127549650735e-04
3.993988740348249035e-04
4.185006443691071526e-04
4.351675918570302665e-04
4.488306987900602643e-04
4.594274319913490960e-04
4.670108315775563430e-04
4.714757099159758939e-04
4.727284228613750435e-04
4.709974460640801129e-04
4.667642300854560507e-04
4.603031796121026032e-04
4.513811012771894822e-04
4.395160676733377296e-04
4.245197732404018759e-04
4.067306530995228172e-04
3.867725759747528804e-04
3.652451606723246648e-04
3.427301662558334479e-04
3.199847471285934128e-04
2.979181175143384187e-04
2.772553487573343328e-04
2.582288488333374897e-04
2.406308015436321452e-04
2.241565527225862194e-04
2.086962437559652505e-04
1.943736106963829394e-04
1.814302262600271556e-04
1.701349207614341196e-04
1.607443868487729499e-04
1.534278639774215678e-04
1.481480148198461341e-04
1.446132502029587807e-04
1.423820331544394598e-04
1.410403706187886882e-04
1.403032382260710194e-04
1.399994113997518022e-04
1.400307255922644942e-04
1.403745462818475247e-04
1.410762469238821277e-04
1.421556654268435200e-04
1.434772408803061347e-04
1.447325057178062101e-04
1.455987990091545863e-04
1.459513972061918057e-04
1.459405207590192693e-04
1.458789610564766980e-04
1.460603726924659940e-04
1.466505711479229427e-04
1.476728192449669008e-04
1.490179365893343406e-04
1.504522510849009740e-04
1.516750532782531070e-04
1.524508216459972444e-04
1.527331875883072225e-04
1.526648515930173499e-04
1.524455634461562091e-04
1.521842141258137378e-04
1.518414655614810211e-04
1.512526926051810199e-04
1.501602446232952112e-04
1.482470906718687817e-04
1.452311031974176311e-04
1.410243904368733265e-04
1.358455273303842180e-04
1.301640574690143793e-04
1.244965447802503524e-04
1.192100557877142568e-04
1.144686437327201129e-04
1.103117060209956354e-04
1.067484301477611078e-04
1.037878299404505934e-04
1.014242912554219985e-04
9.963529015947606728e-05
9.840098370912363245e-05
9.771052958617913416e-05
9.753697775342558306e-05
9.780652848019941300e-05
9.839201982054253512e-05
9.911977742205740482e-05
9.975597167210433218e-05
9.997436154988791719e-05
9.935869543352952209e-05
9.748563118175750076e-05
9.406354284963415132e-05
8.904769495445593718e-05
8.267558109090364339e-05
7.543473570147906347e-05
6.800614612408589354e-05
6.119424938589177669e-05
5.581463365835054709e-05
5.251941740584005187e-05
5.159492272162286502e-05
5.281719354571180535e-05
5.544913908221319821e-05
5.840462126357356368e-05
6.053370130634810236e-05
6.094173534932503604e-05
5.924562240894596965e-05
5.568245394668004347e-05
5.102827398306034685e-05
4.636169180157168171e-05
4.277904478958054413e-05
4.117317744531392922e-05
4.211141218781934171e-05
4.575173639028521239e-05
5.171081862313757081e-05
5.888364095150328985e-05
6.535718400650734200e-05
6.864267017872799446e-05
6.638738003221492556e-05
5.752819596693990929e-05
4.359350499533485657e-05
2.963701562927941669e-05
2.418575167073479682e-05
3.770668315727149689e-05
7.951552531382022121e-05
1.537175138472793886e-04
2.554500085313634976e-04
3.690484889222062363e-04
4.695176986822144306e-04
5.277960703919681602e-04
5.188895458078722316e-04
4.304257064674336117e-04
2.683139513788468009e-04
5.678861040656469592e-05
-1.677537062668203684e-04
-3.669757018718603978e-04
-5.108705393389276509e-04
-5.841848308979196575e-04
-5.871993020480261848e-04
-5.319392505745400030e-04
-4.366594159203021001e-04
-3.210779793470438528e-04
-2.031596938424082082e-04
-9.705885985867311919e-05
-1.184369505550200102e-05
4.891752832741578518e-05
8.655027714640020642e-05
1.058031673365684061e-04
1.129719453733705152e-04
1.141524924398902167e-04
1.140336174795684369e-04
1.154027521375820787e-04
1.192766696197787623e-04
1.254006294343490554e-04
1.328489728514020295e-04
1.405532430198977651e-04
1.476722947306973181e-04
1.537646425821854058e-04
1.587696730672492982e-04
1.628755788699720727e-04
1.663933439380401347e-04
1.697032134772311432e-04
1.732321073029153571e-04
1.773831421660005216e-04
1.824225119401424414e-04
1.884253248708442959e-04
1.953521996487883963e-04
2.031955606940214127e-04
2.120692753364173267e-04
2.222048018467625609e-04
2.339320653902577794e-04
2.476940253112991353e-04
2.640143959939086405e-04
2.833212697111077297e-04
3.056940520387747828e-04
3.307322838214835450e-04
3.576255831736964864e-04
3.852656310894731384e-04
4.122396510189409668e-04
4.368398349260243238e-04
4.573940498712522748e-04
4.729033891471415350e-04
4.834650015548077489e-04
4.899832247440753883e-04
4.933766885793338655e-04
4.940680771058780655e-04
4.922003812361546620e-04
4.881208916271586435e-04
4.823753642667393871e-04
4.751709349775810540e-04
4.660433375216298094e-04
4.542442084135945115e-04
4.394354072896703160e-04
4.218915976061394634e-04
4.020742844366072288e-04
3.802385982513167861e-04
3.566116453765813370e-04
3.318528590039470142e-04
3.071077327959981294e-04
2.834971558546503794e-04
2.615995395243920140e-04
2.414579229725781289e-04
2.229832974007562056e-04
2.062218346151423816e-04
1.912607272708357936e-04
1.780603559947666645e-04
1.665285855054497494e-04
1.567311872687922032e-04
1.488923159790425969e-04
1.431124215261740272e-04
1.391262527949626117e-04
1.363967045797993979e-04
1.344343285165423732e-04
1.329901437805660518e-04
1.319830022795682035e-04
1.313645242997007665e-04
1.311321158464439057e-04
1.314102797536791968e-04
1.323811622389363071e-04
1.340663219053894295e-04
1.362199420378572040e-04
1.384970666350327634e-04
1.407127987278064736e-04
1.428830038687576979e-04
1.450209231830766870e-04
1.469819262946462594e-04
1.485666390430476864e-04
1.497216587772053249e-04
1.505319856575143469e-04
1.509902290994782556e-04
1.508588226394557124e-04
1.498463692451285881e-04
1.479095812298536852e-04
1.453189626655865079e-04
1.424261848414193734e-04
1.394402395231768255e-04
1.364666389052003560e-04
1.336802038639129276e-04
1.313263778550350714e-04
1.295136108302956510e-04
1.280809655611101589e-04
1.267435200594355549e-04
1.253487121269159009e-04
1.239335125367283983e-04
1.225475039108150433e-04
1.211178300819006353e-04
1.195561184771119832e-04
1.179559117284985028e-04
1.165882289579430343e-04
1.156682832156866929e-04
1.151774937972463637e-04
1.149578264721756808e-04
1.149387998118273936e-04
1.151905502478634544e-04
1.157391079827905128e-04
1.163985921037703438e-04
1.168402840948023564e-04
1.167906671767723366e-04
1.160887886287506859e-04
1.145573084466877141e-04
1.119294268545509242e-04
1.080134311370164525e-04
1.029422245306386069e-04
9.720726337040291247e-05
9.142431803099263811e-05
8.609449462876185111e-05
8.159252457320014570e-05
7.829075890871681827e-05
7.655115192320048004e-05
7.651525461264666224e-05
7.791492354234460951e-05
8.012382249952167547e-05
8.239549693011921866e-05
8.406687672269807946e-05
8.464423826195610189e-05
8.389064283152933830e-05
8.198577651070479834e-05
7.960588217687085421e-05
7.773287675547356805e-05
7.726227359673294953e-05
7.871377460037265754e-05
8.222645387159020877e-05
8.767419560590998355e-05
9.460958809824062624e-05
1.020133289646649438e-04
1.081650145986909410e-04
1.109485606751263443e-04
1.085851673822012573e-04
1.005368628416029500e-04
8.835058048378113924e-05
7.628504268095433042e-05
7.140274967441604260e-05
8.258539519829278814e-05
1.181239287946631353e-04
1.822857561665984331e-04
2.720641496143979946e-04
3.755059292214703759e-04
4.724923000627493080e-04
5.381305068818745263e-04
5.484091126006736044e-04
4.872099503045946764e-04
3.527788308809712736e-04
1.609097349153155207e-04
-5.736970333686869838e-05
-2.636106729351647910e-04
-4.226048019513131714e-04
-5.117958275955994743e-04
-5.259035521124473230e-04
-4.755117718076730783e-04
-3.811544047123305193e-04
-2.660776068771415108e-04
-1.505182157215239345e-04
-4.871250193119612733e-05
3.166223196954528687e-05
8.856777480827520462e-05
1.241081354480859324e-04
1.429719155007108417e-04
1.509385577498738307e-04
1.534645531368189204e-04
1.545704719482150790e-04
1.563985348851622877e-04
1.595472687694381110e-04
1.637970659396645670e-04
1.686740544492608602e-04
1.736571897956988727e-04
1.782608252061905073e-04
1.822097858173085932e-04
1.855796978179138923e-04
1.886611231446216853e-04
1.916253698157271773e-04
1.943745013693193584e-04
1.967769758179230082e-04
1.990123973077517327e-04
2.016004405421036050e-04
2.050842684143511468e-04
2.097653774041144923e-04
2.157823152715531963e-04
2.233435940206149567e-04
2.327325637753507382e-04
2.440606533376582976e-04
2.571396275265780971e-04
2.716962086238796010e-04
2.876543834641942976e-04
3.050797833314570291e-04
3.238414298375579133e-04
3.434660810009501500e-04
3.634107775317561482e-04
3.833638923511681730e-04
4.030853942644994328e-04
4.219321702408843490e-04
4.387429054198679814e-04
4.523851951837137820e-04
4.624084070699920621e-04
4.690504660494401864e-04
4.726325750490524406e-04
4.731261850011200375e-04
4.703858294640250021e-04
4.646050860881033220e-04
4.562544418514442803e-04
4.455116633996588260e-04
4.319613816429206826e-04
4.150527061361002318e-04
3.948299020710519403e-04
3.720931201138217648e-04
3.478640453066321730e-04
3.228561633431463549e-04
2.975329715805397459e-04
2.725218660298063685e-04
2.487415580976979615e-04
2.270564082188397561e-04
2.078987547518497847e-04
1.912864605145604972e-04
1.771221203359171911e-04
1.653581218997786536e-04
1.558917145252672028e-04
1.484545973512406685e-04
1.427261935941348656e-04
1.385290123313459337e-04
1.358156975942732131e-04
1.344433373194332771e-04
1.340414736698354776e-04
1.341736324873116747e-04
1.346048404177738395e-04
1.353427731340852824e-04
1.364145995416216831e-04
1.376807927686864413e-04
1.389208541518552342e-04
1.400551971574243246e-04
1.411991647269126128e-04
1.424963165721466021e-04
1.439861133847052165e-04
1.456932480889183213e-04
1.477833106834495526e-04
1.505050536484537314e-04
1.539242215898911019e-04
1.577616984082809925e-04
1.615457468693435781e-04
1.648992183474913542e-04
1.676318755549539863e-04
1.695969895383866088e-04
1.705946977433887965e-04
1.705108436145729117e-04
1.695049666507868766e-04
1.679425864234504614e-04
1.660911068351521812e-04
1.639302526920893778e-04
1.613040768176865968e-04
1.582144293431741859e-04
1.548921007553864901e-04
1.515893666531768834e-04
1.483915022946450280e-04
1.452799957976363824e-04
1.423157011697278923e-04
1.396586962462771002e-04
1.373969828294878219e-04
1.354444143609094889e-04
1.336797966442195235e-04
1.321559498648904756e-04
1.310890783274557729e-04
1.306160155052820196e-04
1.306087329933004087e-04
1.307586292251014092e-04
1.307971772576818278e-04
1.305708806935130086e-04
1.299247052099245935e-04
1.286292503402896540e-04
1.265183981870539104e-04
1.236837760206489464e-04
1.204559177159031597e-04
1.171666808980429005e-04
1.139773088858921210e-04
1.109712237175269580e-04
1.083610150172965305e-04
1.065136554070558180e-04
1.057400760139655491e-04
1.060884988288565353e-04
1.073445278917905773e-04
1.091590037205750256e-04
1.111026879502077000e-04
1.126389099830352284e-04
1.132082650835120302e-04
1.125104403513370511e-04
1.107718936883309127e-04
1.087174634406858070e-04
1.072463069677711173e-04
1.070986634403627295e-04
1.087279726816353680e-04
1.122766201892675162e-04
1.174325175985084567e-04
1.231936597672911044e-04
1.278604788883420528e-04
1.295115180405646967e-04
1.268531446834252746e-04
1.200877914006711288e-04
1.115195479135535858e-04
1.057528971036503175e-04
1.092607725616496031e-04
1.289841964448915871e-04
1.699167037102852925e-04
2.323500999012245911e-04
3.100174228345105114e-04
3.901589011152227916e-04
4.556732878179288590e-04
4.887473227972197144e-04
4.751608868837945646e-04
4.084770104495463110e-04
2.930008076659475430e-04
1.440808555338831743e-04
-1.506099055456945488e-05
-1.592163343342426114e-04
-2.676253071690007520e-04
-3.285505170240093161e-04
-3.405683153508999843e-04
-3.107190413098714758e-04
-2.509303802137642387e-04
-1.744403294937695254e-04
-9.329002624426131762e-05
-1.702480757352012257e-05
4.777603004924754591e-05
9.754369508290331467e-05
1.315545731955149861e-04
1.515554734319204521e-04
1.610463217495995138e-04
1.641960029596977789e-04
1.646930554393874729e-04
1.650206882833336094e-04
1.663928746225549788e-04
1.691072135418889163e-04
1.728911514681633109e-04
1.771032144033396884e-04
1.809706137592835464e-04
1.839640001765428920e-04
1.860831435756493896e-04
1.877710761588207474e-04
1.895321827009847264e-04
1.916481123983327934e-04
1.942282689143256060e-04
1.973964612766381617e-04
2.012815178538455117e-04
2.058162373474148571e-04
2.106779182466749748e-04
2.155550513156604124e-04
2.204899399211329052e-04
2.259239060000811086e-04
2.324370705307995954e-04
2.405292182810123114e-04
2.506467743788710163e-04
2.632401938757647063e-04
2.785614772017882082e-04
2.963230830813962840e-04
3.156544572848164146e-04
3.355029178089331300e-04
3.550595536712666204e-04
3.737318003850854421e-04
3.907835615981160630e-04
4.052431693070525451e-04
4.163455472831500449e-04
4.240231364577275934e-04
4.288123565027158980e-04
4.312476264000672868e-04
4.314529533405990383e-04
4.293500600454956489e-04
4.250739668083753156e-04
4.189478469734858384e-04
4.110325885567810340e-04
4.009090121056181773e-04
3.880852943618150154e-04
3.726065161281247123e-04
3.551729173663451130e-04
3.366882999131707676e-04
3.178235129325711014e-04
2.990457341855262924e-04
2.808876420453172034e-04
2.639504709445693580e-04
2.485780443436281660e-04
2.346400711600899087e-04
2.217375231874840129e-04
2.096008921662957279e-04
1.982411502589192002e-04
1.877761975292020465e-04
1.782583438933547243e-04
1.697430733944376401e-04
1.624404360590744791e-04
1.566552642769886226e-04
1.525230375919495217e-04
1.498490852688194521e-04
1.482428895293788206e-04
1.473717363048690542e-04
1.470378895686572974e-04
1.470568913831848577e-04
1.471914534066628218e-04
1.472949934555445436e-04
1.474888285947115424e-04
1.481050453658001387e-04
1.494136833663476272e-04
1.514341707114099744e-04
1.540224280651850206e-04
1.570702919856677528e-04
1.605325266910981926e-04
1.642671193630438676e-04
1.679527546487057424e-04
1.712390538147268225e-04
1.739438420305113953e-04
1.760289521243338590e-04
1.773934453535336200e-04
1.777950132048014434e-04
1.770536111855704566e-04
1.753025982245060477e-04
1.729615243642423884e-04
1.704466768989987269e-04
1.679585301523693586e-04
1.655619031198011886e-04
1.633820942255848562e-04
1.616133612032126163e-04
1.603328319473015589e-04
1.594061318653091839e-04
1.586488859666821012e-04
1.580447717858425171e-04
1.577263066526581959e-04
1.577356038376998872e-04
1.578774209071321527e-04
1.578552034717709658e-04
1.575077895868883394e-04
1.568449290323456870e-04
1.558682701572633466e-04
1.544574034310224097e-04
1.524964908280076982e-04
1.500699816258086491e-04
1.474536844218731792e-04
1.449080434207169078e-04
1.425474199249189501e-04
1.404415372401845693e-04
1.387713584662375317e-04
1.377800096935484801e-04
1.375457617688215369e-04
1.378622434555366438e-04
1.383834902732890954e-04
1.388537442153875922e-04
1.391567879214326148e-04
1.391955275354561801e-04
1.388561040358649381e-04
1.381750997355965017e-04
1.375027043002717076e-04
1.374068578458701774e-04
1.383780922371157136e-04
1.406415075284360775e-04
1.442120874482449692e-04
1.489696330271400820e-04
1.544855455148238198e-04
1.597034106494239151e-04
1.629019253482161744e-04
1.622269338574241311e-04
1.566218701207010939e-04
1.467274030111120919e-04
1.354525805809668102e-04
1.280979474974899216e-04
1.318157760413408595e-04
1.540530195776868808e-04
1.999324804409339943e-04
2.693025718902313155e-04
3.547789759161808047e-04
4.418793745443412905e-04
5.114420418485551931e-04
5.436954844585383537e-04
5.231038460696063250e-04
4.430705942958244100e-04
3.092022249950411648e-04
1.395294851897536340e-04
-3.918413490548806937e-05
-1.981703145329977731e-04
-3.140022610980750927e-04
-3.738665575155766612e-04
-3.771093667587420667e-04
-3.331040183810978330e-04
-2.569482665489931168e-04
-1.649820938193299229e-04
-7.152641495942137673e-05
1.277656103916477460e-05
8.136546939656494305e-05
1.314699632517160729e-04
1.635609184882833001e-04
1.806603387815924552e-04
1.873835130751534944e-04
1.886755817830655354e-04
1.885742577135231300e-04
1.895224763706855392e-04
1.924401943180871954e-04
1.972280398149394614e-04
2.032138008627947217e-04
2.094052704878352465e-04
2.147705964257297189e-04
2.186568499399490844e-04
2.210858974365041945e-04
2.226243721780308410e-04
2.239406023160906670e-04
2.254969802909765372e-04
2.276156945977896267e-04
2.306682243420769872e-04
2.350270902776252307e-04
2.408207883807160585e-04
2.478747450148167985e-04
2.560051293091992119e-04
2.653403000351826566e-04
2.762649844486605262e-04
2.890534207457992567e-04
3.036521416732339751e-04
3.198470836817251801e-04
3.375096458383294818e-04
3.565210626722861947e-04
3.764753266613946330e-04
3.966472785127484802e-04
4.163831547644461463e-04
4.354344961118288156e-04
4.537375659204722234e-04
4.708659852469270109e-04
4.858952337305888882e-04
4.979439365954597572e-04
5.067597286561455845e-04
5.126152230106437082e-04
5.156664362599756466e-04
5.156321322914167796e-04
5.122097449684481643e-04
5.056375192019405256e-04
4.966092524314930957e-04
4.856219003066135939e-04
4.725987952390406518e-04
4.572615162034243913e-04
4.397416067562278925e-04
4.206480651771613856e-04
4.005624999973337154e-04
3.796695382991263699e-04
3.579890040163423437e-04
3.358513156369172855e-04
3.139725929593652383e-04
2.930603786202393168e-04
2.734846990179572320e-04
2.553949746143341034e-04
2.390313389484942808e-04
2.247511025908659817e-04
2.127328256994649464e-04
2.027835191261171473e-04
1.945340322639760278e-04
1.877894154629534290e-04
1.826158497803746610e-04
1.791104612518209290e-04
1.771913086610927158e-04
1.766504066965397649e-04
1.773109341128375582e-04
1.789995211071310232e-04
1.813542614989137487e-04
1.837815114546383468e-04
1.857161436136864222e-04
1.869312354160957866e-04
1.875487277136649088e-04
1.877680301872195812e-04
1.876692405873280902e-04
1.873064176543817131e-04
1.868870052858630031e-04
1.867167206542854523e-04
1.869306178630054428e-04
1.873507544658657047e-04
1.876611418136178873e-04
1.876756975380825736e-04
1.873673437913679835e-04
1.866722936200797245e-04
1.853997110028863865e-04
1.834202872705104417e-04
1.808924397110843181e-04
1.781924832916884928e-04
1.755882954427621196e-04
1.730371564854631681e-04
1.703361484228665978e-04
1.674100916317876591e-04
1.643772160422312257e-04
1.613618390827178874e-04
1.583602241242741747e-04
1.553562586767265720e-04
1.525034572141718641e-04
1.500782759625985253e-04
1.482174101735345628e-04
1.467514761552753154e-04
1.453329477461485933e-04
1.436890060467555029e-04
1.417042960469899119e-04
1.393026526111421852e-04
1.363666355547526131e-04
1.328416392211389629e-04
1.288711193414240246e-04
1.247399799286211979e-04
1.206663425466641834e-04
1.167085388804934724e-04
1.129198449928306511e-04
1.095542872606003996e-04
1.070380986328194691e-04
1.056959715011512375e-04
1.055079971218872469e-04
1.061151884695596572e-04
1.069939917710889705e-04
1.075892535778963681e-04
1.073716960980361724e-04
1.059666193680216953e-04
1.033935663239160708e-04
1.002130689732357710e-04
9.737360500803157921e-05
9.584226081926127067e-05
9.631672424582789205e-05
9.916190525595717196e-05
1.043915945248978966e-04
1.114674640761985667e-04
1.190066839544368066e-04
1.247796645551711660e-04
1.262678749877466208e-04
1.216607612294090269e-04
1.109264208357846110e-04
9.664975834989569965e-05
8.442431609331466655e-05
8.247194924112754536e-05
1.000598066960097952e-04
1.446115483260393604e-04
2.181888891138918237e-04
3.146857410571801249e-04
4.190373038463635221e-04
5.090356627519814631e-04
5.595653819282040559e-04
5.486159621036545758e-04
4.639706148631339501e-04
3.086588884797171104e-04
1.027049449596908435e-04
-1.204945608404447120e-04
-3.226134535459998791e-04
-4.707770058350574491e-04
-5.459683352260176004e-04
-5.464010005209801388e-04
-4.851383317263747519e-04
-3.838140498689699104e-04
-2.655972456097089609e-04
-1.499431109400377934e-04
-5.003249667463764087e-05
2.753496352350158637e-05
8.170794497575295740e-05
1.154001531546969728e-04
1.338098622451621843e-04
1.428121278892376935e-04
1.475456738916007906e-04
1.514627946437279837e-04
1.561328341541662747e-04
1.617648079889716058e-04
1.679877597910794744e-04
1.743718322206587749e-04
1.805683151291728478e-04
1.863293240400938817e-04
1.916107364475983421e-04
1.966353541600073006e-04
2.017196201699611186e-04
2.069779860730471704e-04
2.122545326835712615e-04
2.173971753491067140e-04
2.225535594301797609e-04
2.281250411041093760e-04
2.344551421425757358e-04
2.416730045624350940e-04
2.498887443799377114e-04
2.594442014861543175e-04
2.708393833834525210e-04
2.844037808731904576e-04
3.001388413798532456e-04
3.179117450962577361e-04
3.376662099214366541e-04
3.592770846400993685e-04
3.822113229236946512e-04
4.055220127841421373e-04
4.283154205833117432e-04
4.501602085022968756e-04
4.709048923521164240e-04
4.901310162979516903e-04
5.069949852821010019e-04
5.207281937551918281e-04
5.311649106763365177e-04
5.385845527140954584e-04
5.430573917309101896e-04
5.441676512686625033e-04
5.415005006693526454e-04
5.352524500028348585e-04
5.261437867560655362e-04
5.147244414104195417e-04
5.009474935352044170e-04
4.845101759723466199e-04
4.654681617955451923e-04
4.443433967124457012e-04
4.216854156639482875e-04
3.977594369411057177e-04
3.727860962268993920e-04
3.473583645587085015e-04
3.224216963307161596e-04
2.988025072306647271e-04
2.768544543150447206e-04
2.566011161417757402e-04
2.381079395434682966e-04
2.215927711666137502e-04
2.072146865068627216e-04
1.949200741984329446e-04
1.845926137345828462e-04
1.762906483323073631e-04
1.702222886250808506e-04
1.664670395698747245e-04
1.647896755560315633e-04
1.647558628225586979e-04
1.659615090114291761e-04
1.680804048410285156e-04
1.707412488901551733e-04
1.735088713484783489e-04
1.760815529476145050e-04
1.784594454540277023e-04
1.808124610334146812e-04
1.831523595472724997e-04
1.851919618485391530e-04
1.865607414607299206e-04
1.871072362136259393e-04
1.869319956921689223e-04
1.861642942125996516e-04
1.848159167326656209e-04
1.828944813005804325e-04
1.805680041778436279e-04
1.780939506079436976e-04
1.755683092667730493e-04
1.728337741376603646e-04
1.697071040368009365e-04
1.662731812435984564e-04
1.628983389201204548e-04
1.599623954528277487e-04
1.576359245423182098e-04
1.559199400765936866e-04
1.547970404192964384e-04
1.542263991446105216e-04
1.539923188060956030e-04
1.536772587097130077e-04
1.528906707982717822e-04
1.515286305080773923e-04
1.497664175463909520e-04
1.478104824099608916e-04
1.457212389788803549e-04
1.434851002915225632e-04
1.411620250187529805e-04
1.388500095646690035e-04
1.364926246471111020e-04
1.338072748593299320e-04
1.304831274154897029e-04
1.264599341232375729e-04
1.220004975073323391e-04
1.175288101765111420e-04
1.134637518831116334e-04
1.102004172797951581e-04
1.081210828238901518e-04
1.074582641835094464e-04
1.080730224529237232e-04
1.094060685588688168e-04
1.107137339168064871e-04
1.113904629012937554e-04
1.111103860310045239e-04
1.097705552073715744e-04
1.074388719312944292e-04
1.044178824472608393e-04
1.012954537487956559e-04
9.882186112524310125e-05
9.767108128288274846e-05
9.828803977078176557e-05
1.008702611923228037e-04
1.052923616932348457e-04
1.108290908869046296e-04
1.158793664635189336e-04
1.181278528852652902e-04
1.153773433053382894e-04
1.068191766370197573e-04
9.421886298838813264e-05
8.253704870993860206e-05
7.964805322603421014e-05
9.487524248104872422e-05
1.362324773343277372e-04
2.068338532248618466e-04
3.017305442671748940e-04
4.067656613053044208e-04
5.003932965290833158e-04
5.581266945527685319e-04
5.583264066123101678e-04
4.879337207589045647e-04
3.469858083262669364e-04
1.506644027067507107e-04
-7.239879469844811395e-05
-2.859589620481863426e-04
-4.548662239044010472e-04
-5.539492259873132589e-04
-5.740152953471720516e-04
-5.228337402167135533e-04
-4.209525734542026256e-04
-2.943649345554907502e-04
-1.671287558786569241e-04
-5.644893456166535239e-05
2.891232249438324239e-05
8.754921509004954269e-05
1.230027846756936018e-04
1.412658027760931424e-04
1.488542676618598477e-04
1.515076179495339077e-04
1.533680008968218685e-04
1.566354867947665995e-04
1.617979843622619049e-04
1.683158593893091092e-04
1.753349927605720446e-04
1.820467504381790983e-04
1.877286534019989724e-04
1.918041627858911124e-04
1.940889873845331331e-04
1.949952461049458833e-04
1.953923817488177400e-04
1.961868959418091544e-04
1.979985911149076026e-04
2.011557057453380187e-04
2.058277042793043969e-04
2.120215914751165333e-04
2.194902922087286503e-04
2.278403743557436026e-04
2.368944264962651698e-04
2.469608790051703619e-04
2.586804161246467407e-04
2.725931701302200354e-04
2.888914607116559413e-04
3.075441727918925921e-04
3.284675848523713779e-04
3.513870185551225961e-04
3.755461480122598231e-04
3.997468204920335048e-04
4.228205064873702943e-04
4.440230187978561624e-04
4.628882434215132562e-04
4.788006071027508127e-04
4.909807919283769523e-04
4.990552311676002377e-04
5.035317112033145439e-04
5.054951505201751112e-04
5.057591385283260110e-04
5.043763211161340736e-04
5.009379413057757488e-04
4.951124974959051749e-04
4.866907554425539619e-04
4.752168017166787605e-04
4.599361442726074061e-04
4.403811421051396645e-04
4.170146412754804194e-04
3.911893806373968304e-04
3.644619855845554891e-04
3.379946539913705967e-04
3.125357530558700104e-04
2.887039488063288775e-04
2.670323722291978777e-04
2.477133839829584309e-04
2.304727592628815554e-04
2.148398399071325396e-04
2.005475361086879362e-04
1.876351669490033025e-04
1.762203775461484957e-04
1.662957900710010600e-04
1.577957030412815661e-04
1.507736000607108520e-04
1.453991870718581889e-04
1.417671485129144769e-04
1.397779351225825043e-04
1.392327792087362558e-04
1.399729207251078984e-04
1.418406437426299595e-04
1.445178643543324783e-04
1.475060686572368445e-04
1.503446201583578902e-04
1.528425970404339760e-04
1.550662406011067283e-04
1.571318421799960399e-04
1.590854342093559967e-04
1.609925135254064628e-04
1.630382072871428337e-04
1.654072069177432312e-04
1.680282381639655164e-04
1.704975119760338920e-04
1.723097271708902271e-04
1.731578222511918940e-04
1.730004591261192343e-04
1.719138494391275632e-04
1.700049092614534774e-04
1.675173173011124702e-04
1.649270910607099317e-04
1.627812817613035238e-04
1.613614810825588289e-04
1.605132363649552094e-04
1.598144361310464639e-04
1.588752725788733446e-04
1.574637467643845348e-04
1.554359707370558887e-04
1.527079513987628860e-04
1.493878740084294437e-04
1.458834595873218659e-04
1.427556541699520111e-04
1.403886523349345491e-04
1.387895899006026245e-04
1.376879772547119662e-04
1.367624034590062107e-04
1.357298882117146689e-04
1.342900480959337197e-04
1.321454500787083415e-04
1.291994679755373711e-04
1.257373815738100167e-04
1.223441679751089534e-04
1.195904352638725777e-04
1.177684019123074051e-04
1.168655577550427674e-04
1.166714916473828614e-04
1.168241687261876218e-04
1.168106295598016713e-04
1.161042848447844765e-04
1.144651883982452832e-04
1.121470041701093352e-04
1.097616800622281378e-04
1.079002547596596506e-04
1.068791483464995990e-04
1.068276312683716811e-04
1.079313006601506056e-04
1.104773887763138015e-04
1.145871649031055808e-04
1.198500393981556086e-04
1.251284761328510132e-04
1.286325975860511703e-04
1.282848652656760782e-04
1.224785296646613622e-04
1.112800865333503554e-04
9.772833135012257534e-05
8.842467856770660128e-05
9.261259949917801575e-05
1.195542369961240340e-04
1.748309611736890935e-04
2.567472494580323966e-04
3.541947821548321169e-04
4.472337853309886675e-04
5.111275441378973928e-04
5.233129901669090296e-04
4.710642439391207357e-04
3.565716964552292337e-04
1.969402889311119950e-04
1.900604939469387165e-05
-1.486344298806682534e-04
-2.829386802777661869e-04
-3.704832893675292973e-04
-4.076908257861385746e-04
-3.985134102073112860e-04
-3.515635943464584913e-04
-2.779758936291308927e-04
-1.900126955137754073e-04
-9.976474023509033519e-05
-1.760130081967611106e-05
4.931771607019147318e-05
9.786341788499530584e-05
1.287173740676456817e-04
1.452224396573188519e-04
1.518479360127844905e-04
1.529112100752185463e-04
1.518807182731145592e-04
1.511357000602486984e-04
1.519083539740800242e-04
1.543498519032480542e-04
1.578488254593476416e-04
1.615813567433871064e-04
1.649899601689139837e-04
1.679034730935254907e-04
1.703588411977027058e-04
1.724436405041572149e-04
1.743285326547096075e-04
1.763289569481987795e-04
1.787864961215156472e-04
1.818522159285914470e-04
1.854588063326416327e-04
1.895640861646553021e-04
1.943879075898640699e-04
2.003487200369403229e-04
2.077840969948627453e-04
2.168107274314355420e-04
2.274694577462686241e-04
2.398949033593015515e-04
2.542178449420830384e-04
2.703074364569806498e-04
2.877206406412035418e-04
3.059477679599211224e-04
3.245997715232625544e-04
3.432343428829850670e-04
3.610516814984675586e-04
3.769687386900788723e-04
3.901444240764393129e-04
4.004038997963479127e-04
4.080594609688630741e-04
4.133488758082004989e-04
4.161728654787115651e-04
4.163834602465778158e-04
4.141273138679941773e-04
4.097039469773911739e-04
4.031181543182742492e-04
3.939908839276455837e-04
3.820581275443001609e-04
3.677045919976437249e-04
3.518962417647826524e-04
3.355972266085807828e-04
3.193327828615536031e-04
3.032831100839503678e-04
2.876016433221516397e-04
2.724674200552387802e-04
2.578688836178089864e-04
2.435406871168271838e-04
2.292594347363186621e-04
2.151855393262265624e-04
2.018444552139706720e-04
1.897841741663268118e-04
1.793168139647345377e-04
1.705810686628947046e-04
1.637249964878462248e-04
1.588961158914379440e-04
1.560438027241686809e-04
1.548191443402595487e-04
1.547251406592270299e-04
1.553331842944631657e-04
1.563140589384882668e-04
1.573166744738137507e-04
1.579547804563935216e-04
1.580041040598248036e-04
1.575870862253460033e-04
1.570917113300464784e-04
1.568927140132938040e-04
1.571827901760294941e-04
1.580517027937048595e-04
1.596099322102378047e-04
1.619154211667692903e-04
1.647777902871628165e-04
1.677367087755812032e-04
1.703157805919799006e-04
1.722969660245453555e-04
1.737306028944983277e-04
1.747339813388686959e-04
1.753741046726659393e-04
1.757533245483005430e-04
1.760853924752408975e-04
1.765458982560261583e-04
1.770224241329089562e-04
1.770958381147140753e-04
1.763419341357237409e-04
1.746503129213566494e-04
1.722319921262444248e-04
1.693654324597620000e-04
1.662175295446171653e-04
1.629126482394820867e-04
1.596616147983622998e-04
1.567046570867950729e-04
1.541254604325897524e-04
1.518101804938578952e-04
1.496382617249999959e-04
1.476587840927197901e-04
1.459998801250182851e-04
1.446067138075904054e-04
1.431412497603278477e-04
1.411816454849240449e-04
1.384892012278644987e-04
1.350527532859715032e-04
1.309338762055710316e-04
1.261902342079018887e-04
1.210151732469750673e-04
1.158996189589137955e-04
1.115495727442209048e-04
1.085752389265162227e-04
1.072306336842803029e-04
1.073954429008499716e-04
1.087034860384504189e-04
1.106293247425321145e-04
1.125310694670287519e-04
1.137933903501613060e-04
1.140800011432544013e-04
1.134866997284005513e-04
1.124307600995585907e-04
1.114003660944315547e-04
1.108367600588956302e-04
1.112102328043852945e-04
1.130392041031125032e-04
1.166081509328492053e-04
1.214939057762357103e-04
1.263005661147732848e-04
1.289009278203658818e-04
1.271406056613414251e-04
1.197723264330709269e-04
1.074427895643199909e-04
9.356153735481107306e-05
8.464868311821465742e-05
8.955015519771695012e-05
1.171586770630829997e-04
1.730148454907523960e-04
2.558959139456711668e-04
3.557226604461609159e-04
4.537948770041227379e-04
5.258298304050632987e-04
5.476537024512301548e-04
5.024485433776911068e-04
3.872417768253874105e-04
2.157391860206980339e-04
1.565196416286885722e-05
-1.788618389104662076e-04
-3.366549312940089571e-04
-4.372033535134302209e-04
-4.738228150487895727e-04
-4.522383046932539606e-04
-3.862828582240143693e-04
-2.931288215422092917e-04
-1.896074328002730805e-04
-8.989848285295710657e-05
-4.233228285745276743e-06
6.168079903307777296e-05
1.065795971533440635e-04
1.328979331057697467e-04
1.454283012463756543e-04
1.496631010749402131e-04
1.503327791357232342e-04
1.506302212896925836e-04
1.522132882340365744e-04
1.556208932430290536e-04
1.606687535372804934e-04
1.667145646251666253e-04
1.729446860919635592e-04
1.787217949779152694e-04
1.837830870291989232e-04
1.881255835763574367e-04
1.917521951485572291e-04
1.946169512168378489e-04
1.968359621731814832e-04
1.988613979087581812e-04
2.013476435358486287e-04
2.048365170641672141e-04
2.096167473567163962e-04
2.158658164340662212e-04
2.238052894404364784e-04
2.336179387247982347e-04
2.452605041333118306e-04
2.585052893962198981e-04
2.732413249218087190e-04
2.896577855868786113e-04
3.080134416525106178e-04
3.282162736777986746e-04
3.497081195892559852e-04
3.717654508478983235e-04
3.937786644259258007e-04
4.151274683003825200e-04
4.348924778313315595e-04
4.519629930936319945e-04
4.655999115089047308e-04
4.758246534961709851e-04
4.831140948123895302e-04
4.877297802558380269e-04
4.894844874759413317e-04
4.881771651017361682e-04
4.840461545984979779e-04
4.775852188673379789e-04
4.689468011824742921e-04
4.577338898999689710e-04
4.434865644907852130e-04
4.262812164661632249e-04
4.067576012587244445e-04
3.856563262499427061e-04
3.635238047476419877e-04
3.408949971614638665e-04
3.185486435871734499e-04
2.973428945153786798e-04
2.777527324266587986e-04
2.596712098693530714e-04
2.427252260851296532e-04
2.267423255928291111e-04
2.118848158924480508e-04
1.984276943205895915e-04
1.865484135784436039e-04
1.763527570876532926e-04
1.679684068463046132e-04
1.614650110613174571e-04
1.566694291662493730e-04
1.531597183793589716e-04
1.505205211302335186e-04
1.485977643715445890e-04
1.474753031718800363e-04
1.472354851322239800e-04
1.478103055511776579e-04
1.490683540601341604e-04
1.509547221624544481e-04
1.534576507050722542e-04
1.564581755238785791e-04
1.597105629750818906e-04
1.630193465349311544e-04
1.663800288915849416e-04
1.698709523488736424e-04
1.734159384685714689e-04
1.767257588747906977e-04
1.794965742222164788e-04
1.815965992538336627e-04
1.829888350608467010e-04
1.835105944092127515e-04
1.828517948428360956e-04
1.808237184435281528e-04
1.776116702465241792e-04
1.736973980554906694e-04
1.695379513765272409e-04
1.653696255260825732e-04
1.613103906238094070e-04
1.575419339069637271e-04
1.542849175865959545e-04
1.515995968397458485e-04
1.492948054038873383e-04
1.470795846697568016e-04
1.447719653413046415e-04
1.423329503912012085e-04
1.397615192116217413e-04
1.370737640676197280e-04
1.344323553720840037e-04
1.322217734673475093e-04
1.308754312914922624e-04
1.305601614618147810e-04
1.310169453908795070e-04
1.316856074955443854e-04
1.319334521746804692e-04
1.311650431775883581e-04
1.288417961429282304e-04
1.246108126100956286e-04
1.185770303851443788e-04
1.114752019124186280e-04
1.045051541429256131e-04
9.890386937578225920e-05
9.555610153011782741e-05
9.482841488231510171e-05
9.654740848319688889e-05
9.999164879282199624e-05
1.039545100373355957e-04
1.070400511956415355e-04
1.081687448938467306e-04
1.070011312588811116e-04
1.039947355239916960e-04
1.001231993774229678e-04
9.654537693423152647e-05
9.442330859523978927e-05
9.480635910084251347e-05
9.840690430599201993e-05
1.052824598959149424e-04
1.146149694624326381e-04
1.247046264756548851e-04
1.331329691249742795e-04
1.370910311635022995e-04
1.340654391237926918e-04
1.230547451343481761e-04
1.060613178082898706e-04
8.908948971048101550e-05
8.178822361485971236e-05
9.534063025800316809e-05
1.388900681794139579e-04
2.153668105012743964e-04
3.180249277999577144e-04
4.293171097071417234e-04
5.235103147820574423e-04
5.731548160086907210e-04
5.574638509190304536e-04
4.692195497929271082e-04
3.172770790784466225e-04
1.238967847813861106e-04
-8.152581472054576416e-05
-2.696085777768329533e-04
-4.165977153387578967e-04
-5.073284925126074442e-04
-5.359088170743591057e-04
-5.052573908169986135e-04
-4.261395824029269586e-04
-3.153602976002125289e-04
-1.926093924843516039e-04
-7.635820885048158978e-05
1.986857781896634646e-05
8.951152153044265609e-05
1.327674020172316496e-04
1.546125518854537487e-04
1.621305796466633988e-04
1.622299787683459480e-04
1.603114871477722932e-04
1.597988266521143590e-04
1.621778800408088376e-04
1.673524786826019993e-04
1.742938813955139537e-04
1.818240331551329895e-04
1.891591126755028216e-04
1.959661143585683511e-04
2.021113871935378283e-04
2.075077155781684740e-04
2.122107207930147685e-04
2.165199619974905428e-04
2.208337521616768329e-04
2.253826066591018513e-04
2.301834750863244897e-04
2.352893267171063483e-04
2.410134027667678181e-04
2.478386123441459919e-04
2.561503742592940395e-04
2.661640197538727944e-04
2.781206475921303386e-04
2.924101059308391879e-04
3.093522350843522012e-04
3.288596437428836284e-04
3.504247671093934269e-04
3.734643785162689478e-04
3.975496406403293309e-04
4.221824545747879178e-04
4.464312951704188775e-04
4.690176529908837082e-04
4.888911704228610230e-04
5.056453375310984363e-04
5.192729989401112783e-04
5.296119128104947614e-04
5.362465346040636970e-04
5.390042971170009699e-04
5.383351615999159862e-04
5.349710034650174148e-04
5.292212843752665740e-04
5.207799313862609449e-04
5.092731489541058596e-04
4.948264543423118965e-04
4.779450030368752951e-04
4.589383324394558897e-04
4.377072753986632541e-04
4.141941029926635501e-04
3.889155832732065204e-04
3.629184071807179052e-04
3.372521202570492350e-04
3.126037468651205321e-04
2.894173577323234567e-04
2.681603871686683081e-04
2.492902454100164120e-04
2.329744823049055091e-04
2.189822478385596504e-04
2.069239872499617646e-04
1.965539889263241040e-04
1.878034311094315778e-04
1.806018577776630143e-04
1.748086461563995290e-04
1.703665315207370120e-04
1.674297347518935225e-04
1.662253540220507309e-04
1.667686510169526942e-04
1.687626284549715292e-04
1.717777327876048932e-04
1.754535713642476377e-04
1.794749545398605344e-04
1.834236385058133213e-04
1.868011817580060010e-04
1.892789352454536450e-04
1.908854223120328775e-04
1.918797656193709314e-04
1.924533981658429430e-04
1.926219109707939141e-04
1.924066008283626219e-04
1.920131993924180966e-04
1.917311235352291089e-04
1.916770475225544287e-04
1.917345268831438488e-04
1.917770033212932632e-04
1.918682571809267963e-04
1.921584109799279855e-04
1.926074979416288961e-04
1.929069987149215938e-04
1.927070045713178488e-04
1.918544087320211663e-04
1.903544330432015857e-04
1.881637331951411369e-04
1.851538215868990392e-04
1.813305679517859977e-04
1.770142892202419360e-04
1.727068844299047565e-04
1.687720389940597745e-04
1.652914280213398340e-04
1.622214667680575457e-04
1.595931590759686535e-04
1.574817609350084499e-04
1.558206120176419240e-04
1.543566907907446177e-04
1.528468179117927308e-04
1.512568497363393468e-04
1.497137539340959752e-04
1.482829882996165838e-04
1.468579916791761886e-04
1.452719004570827705e-04
1.434343650196552719e-04
1.412892216261129783e-04
1.386804622100195738e-04
1.353821210491552092e-04
1.313439036308832201e-04
1.268988997989351126e-04
1.226881107880262699e-04
1.193725014326458070e-04
1.174138316845026886e-04
1.170527074801733935e-04
1.183313324728481645e-04
1.209930986503590254e-04
1.243527243179563260e-04
1.273877005234389447e-04
1.291085311132076784e-04
1.289547348350843009e-04
1.269375419106593393e-04
1.235385027015250149e-04
1.195950113889750454e-04
1.162789813405292648e-04
1.149961776177979464e-04
1.169980502632677168e-04
1.227702878050799986e-04
1.315105551457892215e-04
1.409814435741873746e-04
1.478670734852796415e-04
1.486936241034096391e-04
1.412882832751550621e-04
1.264353812849609523e-04
1.090029514197214737e-04
9.777209666408148204e-05
1.036213205157518409e-04
1.362956487110492966e-04
2.004591493432973041e-04
2.921478182178211132e-04
3.971406790543102142e-04
4.927097326399944906e-04
5.531030263739173660e-04
5.571692990688439538e-04
4.950592522698450465e-04
3.712299747670034893e-04
2.028927188965105259e-04
1.511642790681680745e-05
-1.652164359238922104e-04
-3.146162594161507086e-04
-4.162880097718070168e-04
-4.615755505808187683e-04
-4.502492351205726476e-04
-3.900680541755473284e-04
-2.953394788370610792e-04
-1.840846686636383425e-04
-7.416646965143492407e-05
2.043053995900911756e-05
9.188352244007678320e-05
1.387695097391917598e-04
1.645605598410610794e-04
1.753011134524459997e-04
1.774561830047723229e-04
1.764736128401156662e-04
1.760558128866759615e-04
1.779373683756583743e-04
1.821140698817349320e-04
1.875359363735767796e-04
1.930214481378616251e-04
1.978959307630286503e-04
2.020441300380135252e-04
2.055840460011963981e-04
2.086329795892984216e-04
2.113549126379902414e-04
2.140502312069040983e-04
2.170363339505657822e-04
2.204420313211143232e-04
2.242343415787156923e-04
2.285069330287317331e-04
2.336776669266733711e-04
2.403179784861570183e-04
2.487979424869762499e-04
2.591629029750682086e-04
2.713399316354580680e-04
2.853336857255155687e-04
3.011189124876824321e-04
3.184100542688841277e-04
3.367096997002473179e-04
3.556530237034378041e-04
3.751911477641209597e-04
3.953009993946985756e-04
4.155470630236596393e-04
4.350822258534027044e-04
4.531335827447361330e-04
4.693600321719820301e-04
4.836155129907913496e-04
4.954612697447968034e-04
5.041456207746070712e-04
5.091514098042450136e-04
5.106115572239823498e-04
5.090234743769548676e-04
5.046133824883846080e-04
4.971722168050545301e-04
4.865568567759338044e-04
4.731669531032706394e-04
4.577557057215721746e-04
4.408286714474207637e-04
4.224128240112056711e-04
4.024567466560392804e-04
3.812949221563978583e-04
3.595804291871423377e-04
3.378361500208616145e-04
3.162549603520987051e-04
2.949909699485767176e-04
2.745120294928214103e-04
2.555293374459990940e-04
2.385968149470919775e-04
2.238773779405070540e-04
2.113054467482356922e-04
2.008535343031762975e-04
1.925373776781536743e-04
1.862112866282890659e-04
1.815038942573697471e-04
1.780275631570182328e-04
1.755933690628700653e-04
1.741455964946952246e-04
1.735145809535062144e-04
1.733375453781325719e-04
1.732712363773674562e-04
1.732333698927715905e-04
1.733856443391259129e-04
1.739205581921232082e-04
1.749440563559248748e-04
1.765546620077937888e-04
1.789042858988893815e-04
1.820492366017697160e-04
1.857334957690520239e-04
1.894067026113439790e-04
1.925117125150289661e-04
1.947300140930463650e-04
1.959287474703855258e-04
1.959514133600400256e-04
1.946007620822114777e-04
1.918902818228435526e-04
1.882504616923137426e-04
1.843941617611570105e-04
1.809513875829377725e-04
1.782403033852956195e-04
1.763261794833510387e-04
1.751521101674369198e-04
1.745068563690188557e-04
1.739192030244145811e-04
1.727500727335062815e-04
1.705175500712577158e-04
1.671545627966443631e-04
1.629373607593007848e-04
1.582042896378509534e-04
1.532074234511036752e-04
1.482181060327118901e-04
1.436569202829975208e-04
1.400097887647438078e-04
1.376084612485549766e-04
1.365423043006564721e-04
1.367750391356011225e-04
1.382463477036137759e-04
1.407622686008308999e-04
1.437974721398555650e-04
1.465094632581389516e-04
1.480428883393506236e-04
1.478621122130814255e-04
1.458340709063700902e-04
1.420970753439553772e-04
1.369669619145007732e-04
1.309796387025387006e-04
1.248954943783259046e-04
1.194985589115964885e-04
1.153038463588944849e-04
1.124409010126236426e-04
1.107842527293887694e-04
1.101159576475284140e-04
1.101168086688875640e-04
1.102665983685977171e-04
1.098976866745713656e-04
1.084678677389501288e-04
1.058357594079686843e-04
1.023025346617491299e-04
9.844174306767008629e-05
9.493237502307568226e-05
9.250471182244992228e-05
9.188267068308366738e-05
9.358872884184942127e-05
9.768142326042409383e-05
1.036142595760479674e-04
1.102700691285473549e-04
1.160567567128227752e-04
1.190321694505738743e-04
1.172676024287577312e-04
1.096820287260636399e-04
9.721826246763344602e-05
8.378759037218233650e-05
7.630780319729681246e-05
8.347458320378526697e-05
1.133511458819405670e-04
1.702247253881030884e-04
2.515545803198692776e-04
3.462743268287003730e-04
4.357994399144299769e-04
4.982441439758923066e-04
5.146876043484678630e-04
4.749798574467740584e-04
3.807125873041256438e-04
2.445124812274071047e-04
8.648241397124357250e-05
-7.061181471007187225e-05
-2.059072187224080430e-04
-3.037674228379991324e-04
-3.555392640384725492e-04
-3.599701512584311115e-04
-3.226169777467308717e-04
-2.543442988622045048e-04
-1.689471870370522081e-04
-8.026012418468608789e-05
4.945995258824225853e-07
6.633475113892038275e-05
1.147530135051846184e-04
1.467876439088671196e-04
1.655816779279813697e-04
1.750868104043470876e-04
1.791878637655294564e-04
1.811299447859510321e-04
1.830935808811412057e-04
1.860087356632156058e-04
1.897886429597011118e-04
1.938916752782940205e-04
1.978181630998579964e-04
2.012489723337923205e-04
2.039461401631012744e-04
2.057443607486904151e-04
2.067127555286532939e-04
2.072278007715027228e-04
2.077610553464013902e-04
2.085750558581646254e-04
2.096875059360460013e-04
2.111466554400662904e-04
2.132669586986702965e-04
2.165323130218482891e-04
2.213087319019969650e-04
2.277351906971423362e-04
2.358820681586797931e-04
2.458814199708018815e-04
2.577912954256663509e-04
2.713803462164461849e-04
2.861928242971013337e-04
3.018872998334415814e-04
3.184214853314418572e-04
3.358011938585306203e-04
3.536828272084108931e-04
3.713418442131846773e-04
3.880477636527515282e-04
4.033380349067514732e-04
4.168302510099556376e-04
4.278853071302120238e-04
4.356992137925264378e-04
4.398408074930685490e-04
4.405996607022002131e-04
4.386801869701700265e-04
4.345881098417430895e-04
4.284258375640176181e-04
4.202439618295400535e-04
4.103642128422529132e-04
3.991839088170107456e-04
3.867399451572446634e-04
3.726858556400567866e-04
3.568066645048755892e-04
3.394836104309820364e-04
3.215720585355221362e-04
3.038749763977181416e-04
2.868250311078277318e-04
2.706221765277972476e-04
2.554726516706877048e-04
2.415393149888248243e-04
2.287117744040161591e-04
2.166047090728758970e-04
2.048958147509549038e-04
1.936554586780653254e-04
1.833210559752936975e-04
1.744013696358155804e-04
1.672684877091356486e-04
1.621802195845788955e-04
1.593205354080942833e-04
1.586550013492421204e-04
1.597370538489052531e-04
1.617687228691142985e-04
1.639567875541568314e-04
1.658523233853541909e-04
1.673878102201608621e-04
1.686892696040372531e-04
1.699536619657903195e-04
1.714825726081462378e-04
1.736657230670749224e-04
1.767535283583263896e-04
1.805942468781590691e-04
1.846548587364698431e-04
1.883538991959275873e-04
1.913695652421156359e-04
1.936361108160445873e-04
1.951441204382615372e-04
1.958725799262927897e-04
1.959257258641565469e-04
1.956034294374750862e-04
1.952021411995386935e-04
1.947380827998449067e-04
1.939454880426313196e-04
1.925796387150569596e-04
1.906664343947834703e-04
1.884095807121287792e-04
1.859054258305137979e-04
1.830451457601698642e-04
1.797133033259204168e-04
1.759982089616194561e-04
1.721381831795626481e-04
1.683043494220967055e-04
1.645357262472557701e-04
1.609075129042755660e-04
1.576688619477887470e-04
1.551163671015964190e-04
1.533328719367764448e-04
1.521186345046307445e-04
1.512032912730981249e-04
1.504733305748253607e-04
1.499493406292491963e-04
1.495845432050476979e-04
1.491703580266561565e-04
1.484568477500091516e-04
1.472987125985622146e-04
1.456340417848183441e-04
1.433741722428812397e-04
1.404266949346176096e-04
1.368801388812375961e-04
1.331207357001933924e-04
1.296966850857700414e-04
1.270435702422161278e-04
1.253387583036337917e-04
1.245629086638618097e-04
1.245810690135025869e-04
1.250801975660248888e-04
1.254745835635690074e-04
1.250232837949875767e-04
1.231861630592002120e-04
1.199437512203989158e-04
1.158141510160832236e-04
1.116147573501139839e-04
1.082392005747954928e-04
1.065856778402627845e-04
1.074943091716465339e-04
1.115117384999363034e-04
1.185342973290204950e-04
1.275575662407276041e-04
1.366722508729209973e-04
1.432864143651917186e-04
1.445976257884295916e-04
1.384923288864824077e-04
1.249368039591554043e-04
1.074311106291297129e-04
9.363237846170094391e-05
9.432133725782718202e-05
1.205220672239000262e-04
1.793760428185880833e-04
2.699596742121329086e-04
3.805767290117006529e-04
4.891122243054352170e-04
5.674318146936270903e-04
5.892257678943597227e-04
5.386756436344886578e-04
4.162997625240736884e-04
2.393598217392884004e-04
3.678001263249445324e-05
-1.590202967295644278e-04
-3.200320352570599006e-04
-4.277341626159530735e-04
-4.745711033422239048e-04
-4.627653084438978289e-04
-4.020429124623548845e-04
-3.072323008920727614e-04
-1.957265628455574227e-04
-8.457364595440836216e-05
1.248172469452441956e-05
8.716323647416288870e-05
1.372945084547411100e-04
1.657524169500230592e-04
1.782886297456505085e-04
1.811950590054378131e-04
1.796941338361808982e-04
1.773437336380139450e-04
1.761250805111904728e-04
1.767385815647190583e-04
1.789390016018073393e-04
1.819897872194928214e-04
1.851940352125040713e-04
1.882322006182605935e-04
1.911248519162149083e-04
1.939937585943179207e-04
1.969536240083106366e-04
2.002085294696139364e-04
2.041027978066138821e-04
2.089356063948695301e-04
2.147105293802516396e-04
2.211424761723478538e-04
2.279516638880355831e-04
2.351206476253453177e-04
2.428575457609096866e-04
2.514045703178900758e-04
2.610045009951465289e-04
2.720463489748786885e-04
2.850817095155587901e-04
3.005411100358532941e-04
3.184250596903936341e-04
3.383499430394852560e-04
3.598785063299916051e-04
3.826519934680858116e-04
4.060901670770530490e-04
4.290704027130579253e-04
4.501481760349411139e-04
4.682385028448564097e-04
4.830429505830627183e-04
4.947618143802585706e-04
5.034984232595502481e-04
5.091050840118628270e-04
5.115682996483354467e-04
5.112643969243865771e-04
5.085944513286513348e-04
5.034035125196938175e-04
4.949736365833952694e-04
4.826977544924879399e-04
4.666862029793467201e-04
4.476597578926359020e-04
4.263804811738690533e-04
4.033690124756203021e-04
3.791572046222353091e-04
3.545764769207043190e-04
3.305884365988907619e-04
3.078396732145926521e-04
2.865074962747336828e-04
2.666103157388362505e-04
2.483640592332692727e-04
2.321587854412258077e-04
2.182556628350730056e-04
2.066299454148322801e-04
1.971194200658212600e-04
1.896051077700300672e-04
1.839489276118354830e-04
1.798006783785147187e-04
1.765978020455672933e-04
1.738283116665524056e-04
1.712715869390649440e-04
1.689610111819887361e-04
1.669747263117190650e-04
1.653549468252618463e-04
1.642280530507891445e-04
1.638820163231546206e-04
1.646039116726450736e-04
1.664245413142444369e-04
1.690748193187981510e-04
1.722014260245321939e-04
1.755642027396585726e-04
1.789878209860729335e-04
1.821937219114929416e-04
1.848059613652992068e-04
1.865722400901351935e-04
1.875184810694560157e-04
1.878179573369615028e-04
1.875307692084466282e-04
1.865439141530123002e-04
1.847712721853541132e-04
1.823256324240436082e-04
1.794274242650955914e-04
1.761886033725553705e-04
1.725829664485481246e-04
1.686481739359119267e-04
1.646339879528814173e-04
1.608759061284905127e-04
1.575431347456485371e-04
1.545778703685613291e-04
1.518851800138866504e-04
1.495052155116457463e-04
1.475432693035367800e-04
1.459773661122182483e-04
1.446319112865621255e-04
1.433719767616908371e-04
1.422619455259351885e-04
1.414697917889319969e-04
1.410303037284912474e-04
1.407595834025412681e-04
1.404089299222377528e-04
1.398437211283252762e-04
1.390326424450309369e-04
1.379116482350755367e-04
1.363475736710443307e-04
1.342524325558466249e-04
1.316536556486632315e-04
1.285737291622968028e-04
1.248618879063367350e-04
1.202445903525240639e-04
1.146241561013841575e-04
1.083461284630491268e-04
1.021654126189511680e-04
9.694831308012151429e-05
9.336966544448737542e-05
9.176774956476299160e-05
9.209665277577946919e-05
9.388337605497412968e-05
9.625924470734098027e-05
9.820070465586607541e-05
9.892735172704436412e-05
9.819045751849470852e-05
9.625550601183163063e-05
9.368831936629128088e-05
9.121813856487699982e-05
8.976159455583677059e-05
9.039398643658616886e-05
9.403435639881280693e-05
1.008991355520900577e-04
1.100353469732601679e-04
1.192178610642417663e-04
1.253151953560212924e-04
1.251453801920627911e-04
1.168295916296667957e-04
1.014482200111276110e-04
8.436259814613512376e-05
7.525717251223264974e-05
8.621084958960945532e-05
1.279020661950616082e-04
2.049251617701087363e-04
3.117321327620772679e-04
4.308516024070283934e-04
5.347973151246241449e-04
5.922202443739884572e-04
5.771690603528825117e-04
4.783667635277261587e-04
3.045605322697645572e-04
8.326653870596590202e-05
-1.468639315791541561e-04
-3.469667448421050247e-04
-4.878568796084336158e-04
-5.555016384590350095e-04
-5.511118521720719107e-04
-4.873614271574887541e-04
-3.832981497924337348e-04
-2.597895126899108322e-04
-1.360151007422172396e-04
-2.689355881487276770e-05
5.851367198672327889e-05
1.173906987046481880e-04
1.522644269830504429e-04
1.690715665601754238e-04
1.748076945356208237e-04
1.755575490187545986e-04
1.755024138510334814e-04
1.769169765982790774e-04
1.806518310926800703e-04
1.866011675479419354e-04
1.940577843105304237e-04
2.021057756052787907e-04
2.100331228118685440e-04
2.175120292374136516e-04
2.244276428264528459e-04
2.306148135741540076e-04
2.358630159863809759e-04
2.401860902105063087e-04
2.439819481118885806e-04
2.478304424700692008e-04
2.521448239192081316e-04
2.570786293093279499e-04
2.627433333720932381e-04
2.693906659076623390e-04
2.773113057819389694e-04
2.866502985621637630e-04
2.974841107857713850e-04
3.101102552929797872e-04
3.251173204411674541e-04
3.430150817349327951e-04
3.637798583801144393e-04
3.868231989886316224e-04
4.113633515031123004e-04
4.366609844297399926e-04
4.618107849254942288e-04
4.854821540531131731e-04
5.061845071544139683e-04
5.229571104120932061e-04
5.357273669236281479e-04
5.448934921210163169e-04
5.506303460304283557e-04
5.527422885310710526e-04
5.511337796741756822e-04
5.461463534507412891e-04
5.382374266300619025e-04
5.274325851988596273e-04
5.133464384290610961e-04
4.958286009177671760e-04
4.754476022249517000e-04
4.532115391866311832e-04
4.298820844639144071e-04
4.057033401578532075e-04
3.807783074912801245e-04
3.555165678235273495e-04
3.305878811211587537e-04
3.065329666442832661e-04
2.836021672667725217e-04
2.620152102533587681e-04
2.422495576054850238e-04
2.249554597866199274e-04
2.106029112078870312e-04
1.992724660394290656e-04
1.907502236170149890e-04
1.846924676761598427e-04
1.806281786607860412e-04
1.779014099259151557e-04
1.758022994420627204e-04
1.738751056326039667e-04
1.720952694813225495e-04
1.707075271365670938e-04
1.699043374030305821e-04
1.696921462843911904e-04
1.700254745522068831e-04
1.709498547482507947e-04
1.725313507935180319e-04
1.746874382311640339e-04
1.771881690694988235e-04
1.798515900123005687e-04
1.826659583065852769e-04
1.856566670110134244e-04
1.886709354498689007e-04
1.913845379381803652e-04
1.935480455369961142e-04
1.951669232660102019e-04
1.963919107372351629e-04
1.972786656838178873e-04
1.977403615321378730e-04
1.977379382502419524e-04
1.974158726468939746e-04
1.969668738908910723e-04
1.963946511419699501e-04
1.955009925100472746e-04
1.941248807563065646e-04
1.923145675942898082e-04
1.902007172014324272e-04
1.877466859742310057e-04
1.847244415392563718e-04
1.809681081624399076e-04
1.765967379691853276e-04
1.719523229702729042e-04
1.673730038991176942e-04
1.631005564380655804e-04
1.593835455613146592e-04
1.565389211093449508e-04
1.547992093400214796e-04
1.541033376633454163e-04
1.541123661732035795e-04
1.544608075444349222e-04
1.549528041332317121e-04
1.554917770683479064e-04
1.558864055262302087e-04
1.558267469768631988e-04
1.550743343328298939e-04
1.536087906029684111e-04
1.515344236671882353e-04
1.488850269504342837e-04
1.456108584268427217e-04
1.417872744219034577e-04
1.377806766994931788e-04
1.341505510339037087e-04
1.313885935329611656e-04
1.297627288667622285e-04
1.293452463394293534e-04
1.300525046887747070e-04
1.315651560759515792e-04
1.332580654540022210e-04
1.343593590252288095e-04
1.343176464347458829e-04
1.330827687343386339e-04
1.310680675813842544e-04
1.289028542250402788e-04
1.272721861073105763e-04
1.269419504746067246e-04
1.287594346580676408e-04
1.334149884726327866e-04
1.410383153001748449e-04
1.508922293060002587e-04
1.613084141723952812e-04
1.698323261221791711e-04
1.736108802411030023e-04
1.702336599509227078e-04
1.591109665195786585e-04
1.429542641384480529e-04
1.284734444806592704e-04
1.255149766842529417e-04
1.445009613198828711e-04
1.927304635776104687e-04
2.705631605417528293e-04
3.687932975197350492e-04
4.686580533134558613e-04
5.454836959221507795e-04
5.755386701853841894e-04
5.437432313391511382e-04
4.489206266562627474e-04
3.042829557188434322e-04
1.332284457539215593e-04
-3.738809782950913713e-05
-1.837241363793209678e-04
-2.891396833843167436e-04
-3.455352074355570713e-04
-3.525930239812168098e-04
-3.161987986844571772e-04
-2.468332123379122405e-04
-1.578813612829989483e-04
-6.351240641072887993e-05
2.378438346412482790e-05
9.534916812814451539e-05
1.474091181910478345e-04
1.806880284441461019e-04
1.988790831377596749e-04
2.067863303136567522e-04
2.089192442539609799e-04
2.088097702948144647e-04
2.088017096106300173e-04
2.100152561722264718e-04
2.124973272691346932e-04
2.156861069466891158e-04
2.190346013481362210e-04
2.223723190322275342e-04
2.257851755770495024e-04
2.292800467689112538e-04
2.326726800466008842e-04
2.357840849723727027e-04
2.386252901883946487e-04
2.413208876523903663e-04
2.439357495905445576e-04
2.465228550252059601e-04
2.493733190766969751e-04
2.531019349965525004e-04
2.583644975732671701e-04
2.654867045325054139e-04
2.744230500081608999e-04
2.850448049041005958e-04
2.973419741538437574e-04
3.112881724222414203e-04
3.266317390939157592e-04
3.430037235467199705e-04
3.602587290266456030e-04
3.785442080330392268e-04
3.978745803737296989e-04
4.176597272750319934e-04
4.367821717468596608e-04
4.541657578041672087e-04
4.691654876906123524e-04
4.813755376859854486e-04
4.902606844570127267e-04
4.952550057059329058e-04
4.962845014009866417e-04
4.939948904546429508e-04
4.892691677695622070e-04
4.825377012059151147e-04
4.736816054989640042e-04
4.625862205761995774e-04
4.495976968993406291e-04
4.353246915947474619e-04
4.201163395005083818e-04
4.039344740058743179e-04
3.867517187882365702e-04
3.688963749046165878e-04
3.508843584945581327e-04
3.330034014044552034e-04
3.152282693501791758e-04
2.975603175537192046e-04
2.803120808627976410e-04
2.639684641737296221e-04
2.488463459519168488e-04
2.350197264074877846e-04
2.225806912710665388e-04
2.118469446916655696e-04
2.032195987783147798e-04
1.968741940153867227e-04
1.926712297009760936e-04
1.903548679444274575e-04
1.897326613809124311e-04
1.906012564430608377e-04
1.925730766023004586e-04
1.951087511664370924e-04
1.977629621929330038e-04
2.003327286057575202e-04
2.027163823702299902e-04
2.046949379300897441e-04
2.059723615524194722e-04
2.064664857906580646e-04
2.064859098913624359e-04
2.065465680548979853e-04
2.070234864555222396e-04
2.080134765829985178e-04
2.094778878890125981e-04
2.113753750917144987e-04
2.135716548008111939e-04
2.156954807612306718e-04
2.172387072678319975e-04
2.178750254994157268e-04
2.176440467749925624e-04
2.167869475103094510e-04
2.154572713550621257e-04
2.136743519937633071e-04
2.115381838555079866e-04
2.093596638868923453e-04
2.074784785192587309e-04
2.059780149387190160e-04
2.046617273289148939e-04
2.033147251057094290e-04
2.019019017635254412e-04
2.004555908593004423e-04
1.988390678745248735e-04
1.967450579719018432e-04
1.939694004421841581e-04
1.906271749483372734e-04
1.870518981514455049e-04
1.835244006874443650e-04
1.801641497970828511e-04
1.770515029443933631e-04
1.743242607306598067e-04
1.720579189246558604e-04
1.700868810176777411e-04
1.680514963559777300e-04
1.656740597228927958e-04
1.629604673275421409e-04
1.601144941876927400e-04
1.573151444885967809e-04
1.546522482706105274e-04
1.522575804376602730e-04
1.503758215516396346e-04
1.491996441457748115e-04
1.486357825755660518e-04
1.482989825823291627e-04
1.477619116682202694e-04
1.467821040865105475e-04
1.452922915648513003e-04
1.432734558260628170e-04
1.407645573787885869e-04
1.380234690546503753e-04
1.355920987074698224e-04
1.341133066864664733e-04
1.340709786772452785e-04
1.357210482508387870e-04
1.392004558701610058e-04
1.445205321166591176e-04
1.512742141961276473e-04
1.582917508328000606e-04
1.636680055315627895e-04
1.653271023340072599e-04
1.619059758787110676e-04
1.536370851682066678e-04
1.430463420400750543e-04
1.352822425077444596e-04
1.376712607612687420e-04
1.580639329095406419e-04
2.020563508905292975e-04
2.699766330855627654e-04
3.549244159224689975e-04
4.427923539233320055e-04
5.144516026754535672e-04
5.497466303703468955e-04
5.326666197634524714e-04
4.565691424287576837e-04
3.276116364808117991e-04
1.644960601722111318e-04
-6.026981533082398402e-06
-1.563640557452356124e-04
-2.651312378763378695e-04
-3.214666504915453010e-04
-3.255522272666978140e-04
-2.860672238891811040e-04
-2.163312260505458214e-04
-1.307735433337922810e-04
-4.249017760719202318e-05
3.815030301752801988e-05
1.041755944584889557e-04
1.522116666392692554e-04
1.823150996285576606e-04
1.973717291785520166e-04
2.019829582763968650e-04
2.010255992713267292e-04
1.984059509768246264e-04
1.965011809802448637e-04
1.963098620633689116e-04
1.978910036650595005e-04
2.007171468089223826e-04
2.039490885701517096e-04
2.068057710962527501e-04
2.089576850264614845e-04
2.106318010254058597e-04
2.123044423438144286e-04
2.142863756825094353e-04
2.166057731725305605e-04
2.192115828823455791e-04
2.221462596990122378e-04
2.254577616189868783e-04
2.290473034976358137e-04
2.327754656468450096e-04
2.367868125081444845e-04
2.416612298594892196e-04
2.481642045141971265e-04
2.568513995632872395e-04
2.679365255057439862e-04
2.814485573125184064e-04
2.973228826721981198e-04
3.152327990690473466e-04
3.344410035800878239e-04
3.540259664185252831e-04
3.733393719749720759e-04
3.921523216870147492e-04
4.102709738981292023e-04
4.270914970781090826e-04
4.416883613149629514e-04
4.533593293226393295e-04
4.619486871173242499e-04
4.675600136988728220e-04
4.700839761675261984e-04
4.692054411535906454e-04
4.648815219502560160e-04
4.576139092774411535e-04
4.480998103997233277e-04
4.366868891379010954e-04
4.233276227089881956e-04
4.080595410973509034e-04
3.913450990701025189e-04
3.738180712528031821e-04
3.557896103956774891e-04
3.371782116834688659e-04
3.179604366013031778e-04
2.985788116842140634e-04
2.798381433759273684e-04
2.624769519241246349e-04
2.469291182445839446e-04
2.334300289482661944e-04
2.221459098737754527e-04
2.130634189806809224e-04
2.058192852142009871e-04
1.998102130479933363e-04
1.945690848350808413e-04
1.900200962913719844e-04
1.863499964312894904e-04
1.836905807367305123e-04
1.819925288354603556e-04
1.811620463848277664e-04
1.811762923134584472e-04
1.819721697874781294e-04
1.832758772043115180e-04
1.846654512938319026e-04
1.858525481679158939e-04
1.868583176386193786e-04
1.878812184617667557e-04
1.890522984886685610e-04
1.903997460812772481e-04
1.920243453853053743e-04
1.941713826977502612e-04
1.970243394641214070e-04
2.004533848355666932e-04
2.040527132946167083e-04
2.074373842148625482e-04
2.104320426434452059e-04
2.129379406706595414e-04
2.147083424658674370e-04
2.153913914270266675e-04
2.148328742097672993e-04
2.132655330221502334e-04
2.111447745555298182e-04
2.088395217518602194e-04
2.065409068725327279e-04
2.044160740975770215e-04
2.026928259604196916e-04
2.014902726073677746e-04
2.006184017659217019e-04
1.996706887321981897e-04
1.983674597612584631e-04
1.967654093857572318e-04
1.951038282065983463e-04
1.935119166407006782e-04
1.919492554367256058e-04
1.904074143944626412e-04
1.890444779402646232e-04
1.880348078015204813e-04
1.873239668255720033e-04
1.866175063766478128e-04
1.856193475475715997e-04
1.842065298521839561e-04
1.823294930449042292e-04
1.798125927880523474e-04
1.763664427178621651e-04
1.718292459538667272e-04
1.663418361633374075e-04
1.602593405041600224e-04
1.539626946018454972e-04
1.478487167944005391e-04
1.424881810217912747e-04
1.386504033447793517e-04
1.370125647186512584e-04
1.377618214174404119e-04
1.404526978323243993e-04
1.442088759753337181e-04
1.480266395435813373e-04
1.509630123911976578e-04
1.522723542601409248e-04
1.516401180892397536e-04
1.494164652401606670e-04
1.465597936980610953e-04
1.442082360920134512e-04
1.431942464522599110e-04
1.438888719839418958e-04
1.463818100482306751e-04
1.506276008434467395e-04
1.562801056298484972e-04
1.623712313101182976e-04
1.672303658713377935e-04
1.688443266878874877e-04
1.655410189537390023e-04
1.568223708033362888e-04
1.442776825149651458e-04
1.323915941478876683e-04
1.286857001125517731e-04
1.424870440034625555e-04
1.821182849047163217e-04
2.512137448816705813e-04
3.454953836086938263e-04
4.513018891891133256e-04
5.466957078114040346e-04
6.054736450740938946e-04
6.037828495461980112e-04
5.279129520517104272e-04
3.804983436228304952e-04
1.820572129104923594e-04
-3.358932969866659497e-05
-2.286342747283676526e-04
-3.716916127654266186e-04
-4.453050775504460517e-04
-4.481858923071000951e-04
-3.923529900685327463e-04
-2.973873526919488110e-04
-1.845022376098945046e-04
-7.218577069500983258e-05
2.614132963389836922e-05
1.028152438349835059e-04
1.555425794803316623e-04
1.863983678258979680e-04
2.004311816206152952e-04
2.039807974111798475e-04
2.029799755424269733e-04
2.017430375089272754e-04
2.026177653472123247e-04
2.063623458636330897e-04
2.127153730291459150e-04
2.207809235975206311e-04
2.293107431423771286e-04
2.371189949430395523e-04
2.435476980352754600e-04
2.486187215138862725e-04
2.527280209733648330e-04
2.562176991238304864e-04
2.592627680498529505e-04
2.620789505679858226e-04
2.650601494670772919e-04
2.686117339787741690e-04
2.729209825606614234e-04
2.780243791615528829e-04
2.841177603764063336e-04
2.916900378291044263e-04
3.012762408699148410e-04
3.131428250819669732e-04
3.273116301883785832e-04
3.438420794217625885e-04
3.628955713580757749e-04
3.843898312651681452e-04
4.076642275417375868e-04
4.316533696783589379e-04
4.554263940351597931e-04
4.784349581638429392e-04
5.001772937839629556e-04
5.197943564748855978e-04
5.362521786313637984e-04
5.489763618331267849e-04
5.581343669595428911e-04
5.641630628539129506e-04
5.671213807046851909e-04
5.666833844857626810e-04
5.627280189275127385e-04
5.556808081600867226e-04
5.461114697634137727e-04
5.341138726238577354e-04
5.192991013687793403e-04
5.014185424303545420e-04
4.808201899360222808e-04
4.582087122782277605e-04
4.341182049315056774e-04
4.088355880035390052e-04
3.828376198910921459e-04
3.570891621443309980e-04
3.327446389168852163e-04
3.105772822754573805e-04
2.907708567577275711e-04
2.732022239956083615e-04
2.577614804310504799e-04
2.443410504727779996e-04
2.326623735486148270e-04
2.223258642150940966e-04
2.131090312919601344e-04
2.051449990323472590e-04
1.987409107070859542e-04
1.940557290843498571e-04
1.910173796920519194e-04
1.895167496954500131e-04
1.895517521174853049e-04
1.910971692168012871e-04
1.938814485273448996e-04
1.973911673085085945e-04
2.011140652933399750e-04
2.047148084804837243e-04
2.079557744992797431e-04
2.105536574336438083e-04
2.122564019679908434e-04
2.130864134808221986e-04
2.133998263950402023e-04
2.136008797172859032e-04
2.138005138493804375e-04
2.138102262771096672e-04
2.134562383032019843e-04
2.128099940698635357e-04
2.120674617715930508e-04
2.112782453795103768e-04
2.102975734035140922e-04
2.090005832919872861e-04
2.074393684060611004e-04
2.057302550440844545e-04
2.038605109298333162e-04
2.017238843968779493e-04
1.993602636230311625e-04
1.970563260186626738e-04
1.951197027611964582e-04
1.935733676561105507e-04
1.921410294701156405e-04
1.905344324661515558e-04
1.886897249577467156e-04
1.867072024617834087e-04
1.846558771556999485e-04
1.825492602031314785e-04
1.805046666307195979e-04
1.788004927550589335e-04
1.776732310480140184e-04
1.770731950532797381e-04
1.766917348560650026e-04
1.762370307893466718e-04
1.756202078973361489e-04
1.748454141360405078e-04
1.737951397919737582e-04
1.722273805290237944e-04
1.699933018409730706e-04
1.671718342107084078e-04
1.639281550997289652e-04
1.602806277274261950e-04
1.560895113389860350e-04
1.512920294997565610e-04
1.460985988846285710e-04
1.409389495338844202e-04
1.362732918189519117e-04
1.325049255272219505e-04
1.300051082070677766e-04
1.290434221444014030e-04
1.295448289857481484e-04
1.309052250254021284e-04
1.321456938572071937e-04
1.323614895294194713e-04
1.311150881726974224e-04
1.285105444010413650e-04
1.250381156309664764e-04
1.214424441875595033e-04
1.186781023221546871e-04
1.177880110825446359e-04
1.196044968908523728e-04
1.244193140706518802e-04
1.318281605715244595e-04
1.407403476210686874e-04
1.493873257154608263e-04
1.553457029607523089e-04
1.559053135590255247e-04
1.490879576113955933e-04
1.351371160010232848e-04
1.177808265173282932e-04
1.044947959003527369e-04
1.053545831858912561e-04
1.305024912337280165e-04
1.866034726861925985e-04
2.731192123704336287e-04
3.798289209808008689e-04
4.872146367448435661e-04
5.704300705459072491e-04
6.057895633485785303e-04
5.773183308002600728e-04
4.810292585572897872e-04
3.259540405358694643e-04
1.322537280618665552e-04
-7.275734126390474377e-05
-2.597578381221760449e-04
-4.027748543416306468e-04
-4.838644663112685439e-04
-4.963634985139461515e-04
-4.459317142822974769e-04
-3.487396082594797675e-04
-2.269669029381603254e-04
-1.029903996301873692e-04
5.693657500789722488e-06
8.921132983812950288e-05
1.453112121348796410e-04
1.773727248771709783e-04
1.917153826415160913e-04
1.952956725312786931e-04
1.942117912571992080e-04
1.928801838748800401e-04
1.936833027159481696e-04
1.971123997647849884e-04
2.024368036592224065e-04
2.086041235204979041e-04
2.148564997230021864e-04
2.208175724584304550e-04
2.263087114575063682e-04
2.312941676318497786e-04
2.359923544295805466e-04
2.408493841423679912e-04
2.462331825413397899e-04
2.521386075451839790e-04
2.582640158895737476e-04
2.643879907520926592e-04
2.706114241014287002e-04
2.772323577812102350e-04
2.845149059659145730e-04
2.927181390480059365e-04
3.023218144705200881e-04
3.140363337725070965e-04
3.284390428293660616e-04
3.456128460482213601e-04
3.652160270037966812e-04
3.868577692784043779e-04
4.102347545219085377e-04
4.348164040577872616e-04
4.595401813178477072e-04
4.830492006087501412e-04
5.043029609170121769e-04
5.228494373977335191e-04
5.384571009784300429e-04
5.506664876931182057e-04
5.589421793713494685e-04
5.632617212159228256e-04
5.643021962845966820e-04
5.628465033591824448e-04
5.590588217489943440e-04
5.524906573292409423e-04
5.427640172438207879e-04
5.300444296018249485e-04
5.147588197546241334e-04
4.970391609581912293e-04
4.767012724891997715e-04
4.538052272457571471e-04
4.290612829437140353e-04
4.035715420666450724e-04
3.782596899319923809e-04
3.536676167904472218e-04
3.302255103453419043e-04
3.084765654613971808e-04
2.888845965959386066e-04
2.714935054975477755e-04
2.559354338464110484e-04
2.418239384241640654e-04
2.290798823136301773e-04
2.178607672351230132e-04
2.082824609685886947e-04
2.003288997926423287e-04
1.940118546752412612e-04
1.894725878363185941e-04
1.868160764229280664e-04
1.858690679523269983e-04
1.861847261827635715e-04
1.873007251384864198e-04
1.889352662249413632e-04
1.909156209702736527e-04
1.930133706865663930e-04
1.949765975167293980e-04
1.967389615607261020e-04
1.984881872622815287e-04
2.004265714709644848e-04
2.024699659418931652e-04
2.042458415498980525e-04
2.053948238649141349e-04
2.058181841033450367e-04
2.056193051824633502e-04
2.049010119390629471e-04
2.037340620860574709e-04
2.023112680758877362e-04
2.009924337496013296e-04
2.000800787386141212e-04
1.995605758391404702e-04
1.991372504604442962e-04
1.985253206252866431e-04
1.976531508962836678e-04
1.965597946372515210e-04
1.951907970619780580e-04
1.934112439698824318e-04
1.912281704618661320e-04
1.889047806109857015e-04
1.867862230241485572e-04
1.850464459401086686e-04
1.836657713221560861e-04
1.826253010871937315e-04
1.820115053225505029e-04
1.818679467539263944e-04
1.820075765255327793e-04
1.820804903575421602e-04
1.818563698189327353e-04
1.813843769933361357e-04
1.808445858029519013e-04
1.803014156950816628e-04
1.796756382011742436e-04
1.789338237525290416e-04
1.781965043687327457e-04
1.775930914650562646e-04
1.770582022126119821e-04
1.763607073379378409e-04
1.753474831644313294e-04
1.740891378983113066e-04
1.727378592802673656e-04
1.712848815371559438e-04
1.695295339954070249e-04
1.672836145882770572e-04
1.645359952317703366e-04
1.613945478911058906e-04
1.579536210782930806e-04
1.543269527728620026e-04
1.508112422550424050e-04
1.479036074640119639e-04
1.460453353439556225e-04
1.453186480150632878e-04
1.454084236590430968e-04
1.458417661322651201e-04
1.462282881253315734e-04
1.463074844500840594e-04
1.459170212610853867e-04
1.450841921937307878e-04
1.441957887144083026e-04
1.439884338125683918e-04
1.452485406573030555e-04
1.484348474586629190e-04
1.534983308876848866e-04
1.598959527457198960e-04
1.665758571905500644e-04
1.718822875791782361e-04
1.736779052463727734e-04
1.700124191173492361e-04
1.602533040366782785e-04
1.461600069358117034e-04
1.323545576478418848e-04
1.259310760398468614e-04
1.351613775747856079e-04
1.673038781022490832e-04
2.257423991463364742e-04
3.072634196256889623e-04
4.007989947130439828e-04
4.887128610265470234e-04
5.505757889451848774e-04
5.681757877127250993e-04
5.301781332449453151e-04
4.353579176498979493e-04
2.938058240861195040e-04
1.255940896493653279e-04
-4.327686565647339374e-05
-1.868318034049280753e-04
-2.851506889923935938e-04
-3.285036035456456532e-04
-3.183987790592953835e-04
-2.655501801145121487e-04
-1.858348007065549435e-04
-9.582098078638323494e-05
-9.255710764136933715e-06
6.476890695378551140e-05
1.219828417149406926e-04
1.619792998607529023e-04
1.868764570076141159e-04
2.001626910880197497e-04
2.058401616787682682e-04
2.076770217318329645e-04
2.085092101499420772e-04
2.098511576516243335e-04
2.120655511534683742e-04
2.149267156328072130e-04
2.180990810424369758e-04
2.212595098304686041e-04
2.240583594798344785e-04
2.262372094337750464e-04
2.278742900847687133e-04
2.294275349693284771e-04
2.314331241886009903e-04
2.341511973318584155e-04
2.375313596276512260e-04
2.414706045675865621e-04
2.459876964635322196e-04
2.511101500117399817e-04
2.567151713901120883e-04
2.626518560724274949e-04
2.690637787935379549e-04
2.764980793721434822e-04
2.856167339708768444e-04
2.968274026336619213e-04
3.102372788870068495e-04
3.258749558960900698e-04
3.437571901928368847e-04
3.636291683103961897e-04
3.847385575164301318e-04
4.060395564945831282e-04
4.266517962777356481e-04
4.460036112397981344e-04
4.634853489617086759e-04
4.781459423761125530e-04
4.889882751596943879e-04
4.956356112061947265e-04
4.985730940340559175e-04
4.986272604363180955e-04
4.962797937718104032e-04
4.915895265767692346e-04
4.846769038734033354e-04
4.760083615022678316e-04
4.660561785963309865e-04
4.548123227751527651e-04
4.418598822893377389e-04
4.269597474759286222e-04
4.104237725226376403e-04
3.928392637713723360e-04
3.745576694733174661e-04
3.556202952127794745e-04
3.361658105766283651e-04
3.167349277109696160e-04
2.980722908984347096e-04
2.807048874840204107e-04
2.648204804807387756e-04
2.505135784437142652e-04
2.379893081398530986e-04
2.274476389037566207e-04
2.188623127058602898e-04
2.120122649587633738e-04
2.067455499626354230e-04
2.031124445862827490e-04
2.011774624717039737e-04
2.007625726366977711e-04
2.014726423061995316e-04
2.029755800155761097e-04
2.051732953768079014e-04
2.080591089058842782e-04
2.114828101839002800e-04
2.151487367660366557e-04
2.188242146484427688e-04
2.224365520733607234e-04
2.259130284144810581e-04
2.290193581215646133e-04
2.314947703257281490e-04
2.333728175521195371e-04
2.350699619443976133e-04
2.370673938359790865e-04
2.395126047351274457e-04
2.421666625586094156e-04
2.446884571449444703e-04
2.468584690454647679e-04
2.485058146246377588e-04
2.493587685802821341e-04
2.491412997528655196e-04
2.478499875509683199e-04
2.458308400757757035e-04
2.435005183475036014e-04
2.410289301338992200e-04
2.383660890723776756e-04
2.355455151124822731e-04
2.328305041462155564e-04
2.304863114530568283e-04
2.284699740510717585e-04
2.264443386248893753e-04
2.240980947939646105e-04
2.213707542405100577e-04
2.183430288126451881e-04
2.150119493588708458e-04
2.112975999440485622e-04
2.072743366865568298e-04
2.032890662896707178e-04
1.997740678548338685e-04
1.969715019201164396e-04
1.948925422772908647e-04
1.934961237777073546e-04
1.927710760764661188e-04
1.925675244819002267e-04
1.924211082881582726e-04
1.916819383488070183e-04
1.898855243934540772e-04
1.869843589205363692e-04
1.832262250055858427e-04
1.788942721526057885e-04
1.742444930915965735e-04
1.696470356654527524e-04
1.656270059141405474e-04
1.626342369267445148e-04
1.607586795225811837e-04
1.597183196120644259e-04
1.591323006136495131e-04
1.587720229723261936e-04
1.585653251663124116e-04
1.584695163056831877e-04
1.584546306796982286e-04
1.586088511326028431e-04
1.591614879923071294e-04
1.603407945798259533e-04
1.622523891590599483e-04
1.649539600196035175e-04
1.685865195080184199e-04
1.732442555175703694e-04
1.785318650956156693e-04
1.831961051139998871e-04
1.852970880282709364e-04
1.829936796919264409e-04
1.755945444742598944e-04
1.644727497349261671e-04
1.536228529965767611e-04
1.496548866279956457e-04
1.608419247120239945e-04
1.949058915753582651e-04
2.558374270633074848e-04
3.408519985205109380e-04
4.388802548552326200e-04
5.314753799802139633e-04
5.961244731132215192e-04
6.113087423108469823e-04
5.623407934907356147e-04
4.465874223212364384e-04
2.761793484697971121e-04
7.652956811488851902e-05
-1.195413135528353068e-04
-2.802570853142315470e-04
-3.828612908028274759e-04
-4.183161740685426857e-04
-3.914550010688593821e-04
-3.172924973045373911e-04
-2.155636100363113382e-04
-1.056491233400547674e-04
-3.128790390699758997e-06
8.183513636268665041e-05
1.446539987979587134e-04
1.855142512866572941e-04
2.080502733738875075e-04
2.177720008112387457e-04
2.204691963568700737e-04
2.208867910383813357e-04
2.220055685171260624e-04
2.250604289424431052e-04
2.300586851700342603e-04
2.363639793667154519e-04
2.430836022196979952e-04
2.493166536855232688e-04
2.544118716219020016e-04
2.581960212683800482e-04
2.609895335875204048e-04
2.633670210317607253e-04
2.658718248417690951e-04
2.689108149532946522e-04
2.728078718479025398e-04
2.778167370381727464e-04
2.840211982034890185e-04
2.912865501651745151e-04
2.994165620167824992e-04
3.084035758486995162e-04
3.184997429521684562e-04
3.300278735018835532e-04
3.431602403343687944e-04
3.579088897776254289e-04
3.742649668797820963e-04
3.922206669357867440e-04
4.116004451500428337e-04
4.319489501833923949e-04
4.526893441980577937e-04
4.733795055320633226e-04
4.936977298966473268e-04
5.131221698428646777e-04
5.307282249669321864e-04
5.454627942724512256e-04
5.566762925227451567e-04
5.643405546470860526e-04
5.687450933384697151e-04
5.700915134365600869e-04
5.684715748959030986e-04
5.641396696141900112e-04
5.575674445020795903e-04
5.490790044966849855e-04
5.384820418481405793e-04
5.251884792460274117e-04
5.087461478823284778e-04
4.892329747757521215e-04
4.671820994589824592e-04
4.432757044142894044e-04
4.182234171343779936e-04
3.928730596912691437e-04
3.682488186463792035e-04
3.453311685156763389e-04
3.247598127430304676e-04
3.067424038221028574e-04
2.911933168459813928e-04
2.778895170881717281e-04
2.665051411481518116e-04
2.566139163108881595e-04
2.477970513145611744e-04
2.398183289832901677e-04
2.326957414833808737e-04
2.265979737959889536e-04
2.216839342774495924e-04
2.180338771171349090e-04
2.156745592639582867e-04
2.145910469930595419e-04
2.146796189516938353e-04
2.157171361407583701e-04
2.174178717992730130e-04
2.195255952576838387e-04
2.218322112098913054e-04
2.241185714268700802e-04
2.261358928043357265e-04
2.277039615413811019e-04
2.288359727352153885e-04
2.297321329997470006e-04
2.306174909729506001e-04
2.315729968154446789e-04
2.325079729307339316e-04
2.332562970936964773e-04
2.336615900011581974e-04
2.335825377443941802e-04
2.328845354314028706e-04
2.314947310112688817e-04
2.294791758850284278e-04
2.270349440544226435e-04
2.243810276966728956e-04
2.216584918636502167e-04
2.189378585783165372e-04
2.162942302388485617e-04
2.138322080139713722e-04
2.116249365819316576e-04
2.096574274919219363e-04
2.078604828863337350e-04
2.061953622885833836e-04
2.046756065662331690e-04
2.032920957891184359e-04
2.019345943942158622e-04
2.004126088077923381e-04
1.985621870492261791e-04
1.963339694387703405e-04
1.937982083794500513e-04
1.911046431128924944e-04
1.884591482565837193e-04
1.861083542596582169e-04
1.842762147062264398e-04
1.830478297489329035e-04
1.822751298479418595e-04
1.815784606676093397e-04
1.804400996326861891e-04
1.783297259551947411e-04
1.748249151730371436e-04
1.697356616796798928e-04
1.632288722887487902e-04
1.558904026386304716e-04
1.486499811868944481e-04
1.425645348295697366e-04
1.385390049736552457e-04
1.370834842107365855e-04
1.381673764959460938e-04
1.411951049083766830e-04
1.451207059608560911e-04
1.487078126587626687e-04
1.508881653756723130e-04
1.510957214081307587e-04
1.494303484658651964e-04
1.465846351389348315e-04
1.436008838397502150e-04
1.415978131899646181e-04
1.415565247719907931e-04
1.441485327354273896e-04
1.495424333733549828e-04
1.571790601379335808e-04
1.655987105230599936e-04
1.724680913901694963e-04
1.749632523620349000e-04
1.706086180559685905e-04
1.585265414375610791e-04
1.408079415433132137e-04
1.234460358112059262e-04
1.161450445271442400e-04
1.304820506367501524e-04
1.764036816324030259e-04
2.577682997663794328e-04
3.683639975413654523e-04
4.902237314436685717e-04
5.957711491375672439e-04
6.541440033650247881e-04
6.401939868539518021e-04
5.430394024268799490e-04
3.707339190936784321e-04
1.490043290722742298e-04
-8.556037358811862553e-05
-2.952460516976168213e-04
-4.502646363129803042e-04
-5.342039214312946762e-04
-5.449392097242857164e-04
-4.921215430350466035e-04
-3.931696692587547141e-04
-2.690799847924825634e-04
-1.404792724357890649e-04
-2.419527803004912575e-05
6.905916936139235962e-05
1.353282194635424345e-04
1.763833120847144436e-04
1.976277251134387182e-04
2.057806570731030113e-04
2.070397800556274129e-04
2.060599512968032941e-04
2.057024221727050961e-04
2.072760668078422433e-04
2.109782438515140528e-04
2.163543198709433270e-04
2.226863327267868933e-04
2.292549098245218718e-04
2.354590579984070582e-04
2.408527776912496455e-04
2.451946509560384325e-04
2.485394567693594101e-04
2.512873423256832572e-04
2.540877459100814853e-04
2.576159165106364194e-04
2.623665656172424298e-04
2.685884093072154512e-04
2.763416650733729364e-04
2.855761430095824795e-04
2.961926162278903565e-04
3.081424007581313974e-04
3.215740218412773029e-04
3.368951624496018178e-04
3.546063133992556431e-04
3.749693794495145686e-04
3.977780626239420551e-04
4.224146937027361756e-04
4.480684608968771754e-04
4.738394572430930395e-04
4.986771848519761701e-04
5.214059351496163393e-04
5.410227950637797305e-04
5.570557459458077123e-04
5.695843364307971073e-04
5.788709266718311671e-04
5.850180443663999599e-04
5.880220279488080921e-04
5.880585053338463009e-04
5.855185396431431466e-04
5.806563686518924653e-04
5.732624904239254837e-04
5.627946541079341912e-04
5.488494012993990010e-04
5.314599881170894210e-04
5.109665444930059806e-04
4.877479311025871935e-04
4.622138095403712085e-04
4.350302902638070093e-04
4.072003464189029808e-04
3.797988218843934265e-04
3.535962760174835213e-04
3.289260035180202406e-04
3.058515336822724157e-04
2.843971751414804011e-04
2.646416159053182585e-04
2.467046189476253997e-04
2.307515729140321742e-04
2.170287491125671671e-04
2.058331255942079049e-04
1.973745549483637630e-04
1.916193372420324731e-04
1.882371427330855305e-04
1.866794329083342407e-04
1.863212366859944599e-04
1.865930539018284561e-04
1.870791907548896831e-04
1.875788940134595747e-04
1.881061724681253164e-04
1.888068741216009701e-04
1.898280760040379014e-04
1.912224876802307862e-04
1.929369417466360477e-04
1.948505333022271062e-04
1.967991481493646267e-04
1.985815634630994227e-04
1.999978418332869071e-04
2.009345027342921547e-04
2.014264453076970674e-04
2.016166461240180335e-04
2.016312447894848194e-04
2.014780820950287437e-04
2.010531177358772280e-04
2.002307375081317938e-04
1.989436441433829836e-04
1.971948026129818638e-04
1.950305113371244789e-04
1.925320509158899996e-04
1.898291361349596434e-04
1.870885048605248815e-04
1.844600971750917640e-04
1.820290795481426514e-04
1.798267182254329128e-04
1.778831708115387322e-04
1.762526009771888638e-04
1.749752487129701520e-04
1.740153073405398927e-04
1.732346616303592529e-04
1.724181692775581995e-04
1.713261608436473669e-04
1.697556161111941301e-04
1.676064041818418795e-04
1.649320561360909055e-04
1.619319321861545260e-04
1.588657462027940042e-04
1.559325612162621669e-04
1.531876618561155905e-04
1.505381268129611747e-04
1.478018999897151619e-04
1.447927346510263519e-04
1.414079322865799090e-04
1.377056747788099329e-04
1.339425476589587501e-04
1.305308410606140701e-04
1.279090892162622784e-04
1.263819087897729361e-04
1.260148670496585551e-04
1.266348205591780673e-04
1.279208408567770376e-04
1.295310110581366150e-04
1.312099976858450414e-04
1.328392328644842260e-04
1.344141853189870890e-04
1.359688909272945684e-04
1.375107195521767158e-04
1.390395901620664412e-04
1.406596015640364683e-04
1.426603111778134900e-04
1.453706268500646660e-04
1.487208573307263217e-04
1.517652309343435826e-04
1.526411022001356065e-04
1.492843737762304689e-04
1.407379426485152259e-04
1.284747560604825348e-04
1.171130076493945337e-04
1.141244196972494005e-04
1.283475568506288499e-04
1.673135353273144752e-04
2.338372504558501282e-04
3.230322203795120092e-04
4.213119862047667277e-04
5.083972430853233053e-04
5.619606833445014472e-04
5.633083000608577742e-04
5.023247376708802822e-04
3.805796263329113468e-04
2.120396224631662641e-04
2.098140747614398374e-05
-1.628767764479799708e-04
-3.110234469833898156e-04
-4.027036994306866231e-04
-4.293745900905027732e-04
-3.957162197518286628e-04
-3.169922817871709524e-04
-2.138501473936238841e-04
-1.065387208541850343e-04
-1.050215182023434282e-05
6.557366338733218577e-05
1.193519566966414933e-04
1.530046744036780721e-04
1.710830228292074796e-04
1.788543261226794179e-04
1.812301221334637407e-04
1.820524928439829480e-04
1.836373049049296231e-04
1.867469563211268386e-04
1.910895498469291633e-04
1.960396158592359072e-04
2.010818387963768470e-04
2.058105269330254619e-04
2.098029913636905016e-04
2.127288536632140653e-04
2.146317753647630755e-04
2.160102907873194761e-04
2.175454366913201541e-04
2.197634026496848511e-04
2.229746345457377826e-04
2.274312176279228153e-04
2.333592325326964262e-04
2.407578662999453794e-04
2.492755204600363705e-04
2.584543121718132770e-04
2.681576593829096975e-04
2.787084391344097863e-04
2.905956441975091845e-04
3.041364889797280630e-04
3.194833390382889973e-04
3.368260060319308992e-04
3.563237618482539945e-04
3.776960021389505939e-04
3.999817219477293457e-04
4.218868344791804775e-04
4.424112391967539599e-04
4.610565214476324133e-04
4.774486682962619170e-04
4.909906786169944805e-04
5.011071484577603926e-04
5.077834592520637192e-04
5.116098021232039043e-04
5.131418550572858792e-04
5.123134124584114183e-04
5.086181543100053810e-04
5.018025647185773248e-04
4.921732526875873719e-04
4.801700258400845535e-04
4.658401685659789636e-04
4.489492921146906999e-04
4.295804525857699579e-04
4.084230437744988261e-04
3.863856929053929965e-04
3.640531064022611667e-04
3.416593862415240237e-04
3.195269938706605107e-04
2.983313615956025683e-04
2.788410343092818651e-04
2.614856984599246031e-04
2.462723072846637680e-04
2.330587798200271733e-04
2.217602723741910907e-04
2.122606422922661978e-04
2.042766080229426839e-04
1.974848829947946545e-04
1.918121770493958411e-04
1.875069408568021253e-04
1.848626424341827217e-04
1.839023089607510553e-04
1.843664198009866057e-04
1.859408845174066098e-04
1.883784721252439068e-04
1.913757064268375215e-04
1.944520883705775261e-04
1.970913032583989841e-04
1.990275666575191428e-04
2.003282346860985410e-04
2.011737184422536528e-04
2.016331467422427591e-04
2.017278883095593891e-04
2.016623635810953468e-04
2.018482698095911689e-04
2.026140767572369276e-04
2.039243633145667667e-04
2.054437954572271375e-04
2.068500775135510925e-04
2.080088814636259448e-04
2.088540925704704301e-04
2.092330161625214290e-04
2.089956085502214323e-04
2.082118145436686284e-04
2.071635059801943835e-04
2.060356189183369928e-04
2.046610790895071850e-04
2.026600664892229961e-04
1.998437594462444211e-04
1.964283975750464901e-04
1.928442476238954135e-04
1.894064782430557347e-04
1.862218068380534319e-04
1.833398616397077449e-04
1.808466055223568070e-04
1.787469330055438898e-04
1.768414309048426335e-04
1.748390240264320052e-04
1.726086191519329144e-04
1.702467097277093379e-04
1.678601901456867212e-04
1.653432137982456605e-04
1.624453005514885301e-04
1.590557655753631827e-04
1.553665421004396139e-04
1.517592066117435373e-04
1.486149458606875271e-04
1.462808928557795336e-04
1.451237801910130174e-04
1.454210602206199563e-04
1.470635021945795797e-04
1.493780154558805586e-04
1.513498521020247131e-04
1.521205397712615691e-04
1.513490515381556915e-04
1.492013909719477796e-04
1.461391080287834196e-04
1.428015606226949047e-04
1.400112860547911536e-04
1.386825633546371619e-04
1.395193714173588136e-04
1.426725884899909152e-04
1.475816092103871967e-04
1.530054053388730921e-04
1.571186653337887775e-04
1.577389046122083967e-04
1.529767517094491160e-04
1.424271257482841646e-04
1.284769559163757673e-04
1.169199284926918537e-04
1.162358805395079269e-04
1.354489294963540525e-04
1.809966549560746178e-04
2.533874945249946220e-04
3.447682983830158490e-04
4.387890130463966212e-04
5.137563166680343294e-04
5.486271464673628598e-04
5.296069084291649652e-04
4.544596255628357922e-04
3.328324358334488402e-04
1.830100552231305909e-04
2.694255009175700402e-05
-1.145133007621167425e-04
-2.249339338399920112e-04
-2.939674762951866266e-04
-3.177108466465960578e-04
-2.984467239641605475e-04
-2.439521914239447273e-04
-1.661192157371579826e-04
-7.868544372922805369e-05
5.559774693054445695e-06
7.721614095842542036e-05
1.315036251160466723e-04
1.679884330617255502e-04
1.892298637761675225e-04
1.991834863761883414e-04
2.020202561043267855e-04
2.014639817330643413e-04
2.003784276882818963e-04
2.004658450488597580e-04
2.022464823237629889e-04
2.054519343078463356e-04
2.095890669993422605e-04
2.142469390236185958e-04
2.190339090888599241e-04
2.234684320950355830e-04
2.271333166195706990e-04
2.299633514665358274e-04
2.322791701661492140e-04
2.344722165225312149e-04
2.366987334360636213e-04
2.389348376111192173e-04
2.412789146544872573e-04
2.440876312638668995e-04
2.477930204771630466e-04
2.526935341081460178e-04
2.590177194970663135e-04
2.671252211005533945e-04
2.774673995901280675e-04
2.902533945432238575e-04
3.052213051601927393e-04
3.218349397058386510e-04
3.396702818797756301e-04
3.584795804285932446e-04
3.778508265062096054e-04
3.969624402342172972e-04
4.148398030831134818e-04
4.308274362928026131e-04
4.446543637543686422e-04
4.560141105940019213e-04
4.642937768255817879e-04
4.689450140861004131e-04
4.701092691933441239e-04
4.686713298642034291e-04
4.655661880682873915e-04
4.610875821177711398e-04
4.549307221856577752e-04
4.467767180170785935e-04
4.366201293690034424e-04
4.245124907083916628e-04
4.102413755062302679e-04
3.935284186590637737e-04
3.745681108840328405e-04
3.542172042333411089e-04
3.335706897927445637e-04
3.134215894929945996e-04
2.941853035412957530e-04
2.762222367365409735e-04
2.600172121873897571e-04
2.459601502017245761e-04
2.340562801948259831e-04
2.239744938272933417e-04
2.153667143425161130e-04
2.080502301133953409e-04
2.018840106037799733e-04
1.966147681916301650e-04
1.919930247749258476e-04
1.880480556466050939e-04
1.851462276722615425e-04
1.837062359951503754e-04
1.838688198596504745e-04
1.854508711327329334e-04
1.881301268108461963e-04
1.915445939330922772e-04
1.952000434008131910e-04
1.984381355718339238e-04
2.006888890646912795e-04
2.018255424243164140e-04
2.022239052609555712e-04
2.024358420858064626e-04
2.028320270236300907e-04
2.035621328574100373e-04
2.047398308289857208e-04
2.064893965306882975e-04
