-6.814815899575090742e-03
-7.411700955288110133e-03
-7.919465887725442299e-03
-8.277057059843218045e-03
-8.469996153125330593e-03
-8.523374722152504690e-03
-8.483369047247266148e-03
-8.400062167403786820e-03
-8.316227361617295824e-03
-8.260017383232381299e-03
-8.240777012372361293e-03
-8.250929639763407777e-03
-8.274895392480347694e-03
-8.299549672296216776e-03
-8.318769090761183455e-03
-8.330863412039106811e-03
-8.334836053198908801e-03
-8.330654393258951282e-03
-8.321677770818429465e-03
-8.313910651657803116e-03
-8.311409209471364370e-03
-8.313159871910847862e-03
-8.315435088548324416e-03
-8.316603680095565471e-03
-8.318270516009747956e-03
-8.321756846908813510e-03
-8.325265391600038950e-03
-8.325910026002003236e-03
-8.323810190347556356e-03
-8.322390713753319291e-03
-8.324189021200707056e-03
-8.327731349867098509e-03
-8.329692473604334221e-03
-8.329383465225265529e-03
-8.329474207557658466e-03
-8.332074664464938010e-03
-8.335675011460470449e-03
-8.337193294107137637e-03
-8.336259981303214411e-03
-8.335747705136653182e-03
-8.337756290954533023e-03
-8.340591265760253711e-03
-8.340961447898085843e-03
-8.338450109987906658e-03
-8.336166392055302174e-03
-8.336706095573643768e-03
-8.338955924330791053e-03
-8.340055855136278493e-03
-8.339703683753998259e-03
-8.340786211674805495e-03
-8.345431546023934777e-03
-8.351905238234645298e-03
-8.356595728097254011e-03
-8.358328566532353954e-03
-8.359113117953202374e-03
-8.360456352552659426e-03
-8.360573192903385589e-03
-8.356593340289691224e-03
-8.348895952981006882e-03
-8.341616634495341298e-03
-8.338453094902904122e-03
-8.339199004648027019e-03
-8.341343969839751238e-03
-8.344143463026048105e-03
-8.349333126738673824e-03
-8.357521765259029456e-03
-8.365471498185608409e-03
-8.368421907338370255e-03
-8.364799933217391403e-03
-8.357458699768271007e-03
-8.350323128281681925e-03
-8.345333672896314975e-03
-8.343537939080856308e-03
-8.347655477637824090e-03
-8.360734917878826639e-03
-8.380729040652656545e-03
-8.397030581783763298e-03
-8.393736204454292638e-03
-8.357168959466042962e-03
-8.281406810322290007e-03
-8.169623703049425090e-03
-8.034512910101494765e-03
-7.899971532073028421e-03
-7.800455023924643058e-03
-7.773107486446455619e-03
-7.844319805835402518e-03
-8.019088672809988882e-03
-8.279761249431282985e-03
-8.592460759212822499e-03
-8.914741155847517515e-03
-9.201571007329564442e-03
-9.412183058335863231e-03
-9.519387039749940133e-03
-9.517088802824607077e-03
-9.419992695058696658e-03
-9.255476107576959821e-03
-9.054281972957198277e-03
-8.845639889103666317e-03
-8.655533250358126568e-03
-8.503510028102487933e-03
-8.397805508311890349e-03
-8.333872596128744439e-03
-8.299550125557169852e-03
-8.282938722848872878e-03
-8.276141780331966458e-03
-8.273439365548862501e-03
-8.269060629920622560e-03
-8.258855243150741571e-03
-8.243477097742712284e-03
-8.227731291937327024e-03
-8.215692643364341102e-03
-8.207145473741536343e-03
-8.199428690488969745e-03
-8.191740802687827103e-03
-8.185949857804372329e-03
-8.183048867472749940e-03
-8.180527946933625200e-03
-8.174639213005659155e-03
-8.164649058281956903e-03
-8.153291178707109885e-03
-8.142799613350739166e-03
-8.131982194033731196e-03
-8.118336388994224287e-03
-8.102180180775072488e-03
-8.086902266877051687e-03
-8.074760407621638103e-03
-8.063862799907757853e-03
-8.050458079164910657e-03
-8.033456471409223740e-03
-8.015110703004993398e-03
-7.997123878465220784e-03
-7.977752963196551445e-03
-7.954046223110054076e-03
-7.926183149966358615e-03
-7.897899547890538385e-03
-7.872315809746063126e-03
-7.848780586277468926e-03
-7.824913475852839084e-03
-7.800867468177864056e-03
-7.779830160546455202e-03
-7.764065153252810297e-03
-7.752025394743897353e-03
-7.740613392890013413e-03
-7.729537148833481863e-03
-7.721793005465446905e-03
-7.719651919428784960e-03
-7.721739366270201702e-03
-7.725270111551714274e-03
-7.730329181926112389e-03
-7.740202950762353241e-03
-7.757180152250637249e-03
-7.779503825982175998e-03
-7.803615904316122710e-03
-7.828602380242716263e-03
-7.856772261217313119e-03
-7.889662077879519217e-03
-7.925047670432261090e-03
-7.959114882663405680e-03
-7.990803278372421783e-03
-8.022353888355768584e-03
-8.055353939050699519e-03
-8.087783874576247659e-03
-8.116161456119616244e-03
-8.139820245802656742e-03
-8.161415046034676060e-03
-8.182967263421488807e-03
-8.202917055024138565e-03
-8.218234356585561035e-03
-8.228634185341331120e-03
-8.237043623782192014e-03
-8.245673333140737457e-03
-8.253139110047068294e-03
-8.256636635027448518e-03
-8.256195457744756189e-03
-8.255154447837476095e-03
-8.256172673893122718e-03
-8.258181434255579267e-03
-8.258332835465499039e-03
-8.256127084925915516e-03
-8.253997488049190367e-03
-8.253648677952364968e-03
-8.253382384006160283e-03
-8.250274344417739270e-03
-8.244294514024846227e-03
-8.238681123127219660e-03
-8.235965967540765861e-03
-8.235003100914345744e-03
-8.232964749376767838e-03
-8.229453492644122833e-03
-8.227033694152882659e-03
-8.227506962952550046e-03
-8.229177737435547368e-03
-8.228986763048300526e-03
-8.226635486821447241e-03
-8.225030962768343709e-03
-8.226417723153463951e-03
-8.229479638267075958e-03
-8.231328995566706760e-03
-8.231556618011053039e-03
-8.232722476441680856e-03
-8.236658490287922241e-03
-8.241785330535329746e-03
-8.245220711987480411e-03
-8.246757687934513567e-03
-8.249133492309101978e-03
-8.254128680030262469e-03
-8.259868936607423634e-03
-8.263133322067142683e-03
-8.263599476999897858e-03
-8.264248624887208031e-03
-8.267383085408022345e-03
-8.271701015412771113e-03
-8.274376139787660567e-03
-8.275174577664494088e-03
-8.276857597061603594e-03
-8.281303825856671519e-03
-8.286749315826826001e-03
-8.290022150554281904e-03
-8.290736738624066363e-03
-8.291678978688219251e-03
-8.294858928113007027e-03
-8.298690529227985280e-03
-8.300196476119185013e-03
-8.299180140907566616e-03
-8.298582722381103380e-03
-8.300529028662123956e-03
-8.303540585546498320e-03
-8.304771706401002651e-03
-8.304135666760571050e-03
-8.304526031493078553e-03
-8.307735901304267451e-03
-8.311696121690220762e-03
-8.312937190916381072e-03
-8.311036795862224158e-03
-8.309075136277229920e-03
-8.309566324856998074e-03
-8.311464668194450470e-03
-8.312232263479317484e-03
-8.311883790073550798e-03
-8.313210825087772107e-03
-8.317780962405556602e-03
-8.323301190873032621e-03
-8.326171553969580544e-03
-8.325916791183831170e-03
-8.325530470897313587e-03
-8.327304293062859353e-03
-8.329846581913597295e-03
-8.330286591755347095e-03
-8.328487866023578240e-03
-8.327360638668726209e-03
-8.328829365794123557e-03
-8.331091686786137179e-03
-8.331058891395178717e-03
-8.328688613023525061e-03
-8.327242665988651704e-03
-8.329061326192458911e-03
-8.332591947549291070e-03
-8.334669968697177439e-03
-8.334833237380483151e-03
-8.335720872964682768e-03
-8.339104773598483844e-03
-8.343176715377416050e-03
-8.344941609254427975e-03
-8.344419527613460355e-03
-8.344769735623308940e-03
-8.348048486012730335e-03
-8.352383197009849089e-03
-8.354478574979281452e-03
-8.354085233803969918e-03
-8.354360825859634063e-03
-8.357650864380089528e-03
-8.362427166962021000e-03
-8.365451161920289119e-03
-8.366043487618966129e-03
-8.366555115189997643e-03
-8.368525576752340253e-03
-8.370055058933081882e-03
-8.368228705671111947e-03
-8.363364996555301689e-03
-8.359218524533591765e-03
-8.358731227774710004e-03
-8.360969611507864524e-03
-8.363187287916504231e-03
-8.364885847870092567e-03
-8.368085358148182051e-03
-8.373420760043874533e-03
-8.377651847425750947e-03
-8.376422900785118059e-03
-8.369006907006291268e-03
-8.359069765757913897e-03
-8.350850720780622627e-03
-8.346113569635613474e-03
-8.345555890029722826e-03
-8.351495006919451569e-03
-8.366312707747514121e-03
-8.386886708314984437e-03
-8.401423930094053735e-03
-8.393303988802714583e-03
-8.349002730870217978e-03
-8.263660437181529622e-03
-8.142295279464265012e-03
-8.000050451080764624e-03
-7.863438168838950137e-03
-7.768804631336181064e-03
-7.753432305447104447e-03
-7.841590976720833397e-03
-8.034295486005120154e-03
-8.309146972334034362e-03
-8.628068280818218527e-03
-8.946151732559722361e-03
-9.218528976237736622e-03
-9.407475565035901960e-03
-9.490969652977899323e-03
-9.468517808028502694e-03
-9.358991469207071298e-03
-9.191419730556068049e-03
-8.995738178251650938e-03
-8.798680124564004640e-03
-8.622923462055105334e-03
-8.484691297432312221e-03
-8.389669565903154838e-03
-8.332218982956598671e-03
-8.300690035453969079e-03
-8.284697811667704123e-03
-8.277917102433637181e-03
-8.275659080588687946e-03
-8.272664839957628510e-03
-8.265044693945639703e-03
-8.253502338971910671e-03
-8.242507141399117720e-03
-8.235420865812699553e-03
-8.231303183067901694e-03
-8.227148815829733730e-03
-8.222196817632638002e-03
-8.218414939645502307e-03
-8.216762209787556101e-03
-8.214752520397342050e-03
-8.208992733651308132e-03
-8.199340112018132024e-03
-8.188920928987392794e-03
-8.179887160371861893e-03
-8.170683887427240832e-03
-8.158537385231659500e-03
-8.143642404792761358e-03
-8.129144637603540752e-03
-8.116844247637471088e-03
-8.104550821173337957e-03
-8.088837458255442037e-03
-8.069513395399671718e-03
-8.049719092421504796e-03
-8.031536813803839131e-03
-8.013173859465013218e-03
-7.991598782803970014e-03
-7.966979101492219911e-03
-7.942778698274838289e-03
-7.921368943741019172e-03
-7.901204024309563256e-03
-7.879438270819270548e-03
-7.856327702205139277e-03
-7.835296589328154260e-03
-7.818581902614845508e-03
-7.804536614314182795e-03
-7.790400793683867169e-03
-7.776746936339663102e-03
-7.767409291135540447e-03
-7.764889507215134122e-03
-7.767480477291250143e-03
-7.772015379692428713e-03
-7.778426850992966810e-03
-7.789845180059519480e-03
-7.808157128998902304e-03
-7.831220137306329349e-03
-7.855609377212588798e-03
-7.881081175323954857e-03
-7.910518146130803702e-03
-7.945341085902453415e-03
-7.982651392718588881e-03
-8.018038309578852038e-03
-8.050258454186930493e-03
-8.081510117236505308e-03
-8.113158419826189960e-03
-8.143010814004213865e-03
-8.167989557317626576e-03
-8.188465614719466976e-03
-8.208128568304304956e-03
-8.229388306604948702e-03
-8.250473893272044362e-03
-8.268080479384719989e-03
-8.281813301596965132e-03
-8.294288910957811276e-03
-8.306859983102696243e-03
-8.317062836452549651e-03
-8.321540554550747870e-03
-8.320592157795592483e-03
-8.318150061422014893e-03
-8.317169512564170919e-03
-8.316627431730779646e-03
-8.314032172601416512e-03
-8.309740186899859660e-03
-8.306965513372913112e-03
-8.307446631160756920e-03
-8.308850717838642264e-03
-8.307656735881584903e-03
-8.303687042536873897e-03
-8.300132258555059303e-03
-8.299076998888561124e-03
-8.298693594131524576e-03
-8.295928607069997726e-03
-8.290900994872868468e-03
-8.286871478995571846e-03
-8.285790543586853824e-03
-8.285584414834443190e-03
-8.282977693621514786e-03
-8.278024479212477138e-03
-8.274155450183954402e-03
-8.273708575550106983e-03
-8.275088522923948822e-03
-8.275383431233507975e-03
-8.274698336387116548e-03
-8.276125599635324528e-03
-8.281376975308580440e-03
-8.288166136012001597e-03
-8.293039007078841299e-03
-8.295807580299257092e-03
-8.299499470413668201e-03
-8.305914073520194452e-03
-8.312942203562326965e-03
-8.317366532117191971e-03
-8.319273563752040135e-03
-8.321953759525792943e-03
-8.327372165608935839e-03
-8.333407565276916562e-03
-8.336650866598785056e-03
-8.336936818950417549e-03
-8.337438982383409830e-03
-8.340284509568732588e-03
-8.343774804908781970e-03
-8.344999769190080199e-03
-8.344132006443396796e-03
-8.344376092816149434e-03
-8.347610415304230341e-03
-8.351775646376817172e-03
-8.353677815924808944e-03
-8.353371502423804010e-03
-8.354061313409809689e-03
-8.357620168836295271e-03
-8.361879537115727776e-03
-8.363429767785800564e-03
-8.362099760827378103e-03
-8.361000808801229492e-03
-8.362158755920175157e-03
-8.363826683074919097e-03
-8.363182762723804509e-03
-8.360599555036707375e-03
-8.359455802449476669e-03
-8.361639311646724623e-03
-8.364909614152156447e-03
-8.365792898568967864e-03
-8.364086485610771823e-03
-8.362844883145044428e-03
-8.363962569912220674e-03
-8.365539211353044402e-03
-8.364712153771448541e-03
-8.362016015020739754e-03
-8.361137355946856448e-03
-8.364245927639896508e-03
-8.369208656466746790e-03
-8.372461181539241418e-03
-8.373592297051736522e-03
-8.375418044193484735e-03
-8.379598298702732942e-03
-8.383982780674606450e-03
-8.385393227361067139e-03
-8.383931882997710389e-03
-8.382756599856946989e-03
-8.383591447345311101e-03
-8.384259347712823621e-03
-8.381812370368816115e-03
-8.377062692485977638e-03
-8.374229589902120602e-03
-8.375986028365759589e-03
-8.380441208004655793e-03
-8.383950635735656215e-03
-8.385741030631355467e-03
-8.388023352337511257e-03
-8.391657824923579381e-03
-8.393655756968550208e-03
-8.390276476002694189e-03
-8.381740959075140857e-03
-8.372337983890297888e-03
-8.365990499158176830e-03
-8.363394271553862419e-03
-8.364239627348222725e-03
-8.370447220776896374e-03
-8.384473271374990114e-03
-8.403453490867993786e-03
-8.416253764868550716e-03
-8.407783469727678899e-03
-8.366738852870665016e-03
-8.290001162242037480e-03
-8.182458499262206322e-03
-8.056682732293762861e-03
-7.934652745609697619e-03
-7.847194933946265855e-03
-7.826158083927283252e-03
-7.891815412385748754e-03
-8.044347954640557880e-03
-8.265070757757023157e-03
-8.524073118369009106e-03
-8.787095072837114787e-03
-9.019418628739986690e-03
-9.190360960421996989e-03
-9.280372047911957661e-03
-9.286532101671414463e-03
-9.221020710323140496e-03
-9.103575972174806838e-03
-8.954805446365112984e-03
-8.794647854522228206e-03
-8.642880082698754449e-03
-8.516391523245570028e-03
-8.423748288283476951e-03
-8.363043481974917134e-03
-8.326289641091411467e-03
-8.306054775580832411e-03
-8.297766494771182180e-03
-8.297120778201381650e-03
-8.298174814779910383e-03
-8.295833589235173527e-03
-8.289500630231294229e-03
-8.282467425803925060e-03
-8.277246076211785403e-03
-8.272654340392040020e-03
-8.266186819547133302e-03
-8.258097358575357608e-03
-8.251430372808607472e-03
-8.247959359991705736e-03
-8.245708966580089436e-03
-8.241563997525356081e-03
-8.235423041721014192e-03
-8.230185249497496552e-03
-8.227578066571537493e-03
-8.225558503402707541e-03
-8.220859557029166348e-03
-8.213188595739715978e-03
-8.205342431418289131e-03
-8.199145176007262281e-03
-8.192841307766979622e-03
-8.183508392244381868e-03
-8.171091207607276974e-03
-8.158441144617487040e-03
-8.147316763648772622e-03
-8.135923356674210766e-03
-8.121444665170819699e-03
-8.104086996207971946e-03
-8.087022162078162657e-03
-8.072259960982125504e-03
-8.058119271172068179e-03
-8.041803545109605170e-03
-8.023585099801269424e-03
-8.006896526094552796e-03
-7.994237970718234484e-03
-7.984505731157606062e-03
-7.975320426680341385e-03
-7.967024016902905792e-03
-7.962751369913307134e-03
-7.964441315513165129e-03
-7.970273104616809948e-03
-7.977062624847734360e-03
-7.984355123688840691e-03
-7.994677736866729473e-03
-8.009749859090526183e-03
-8.027985839676720151e-03
-8.046732043468193471e-03
-8.066031265025580890e-03
-8.088542562149192428e-03
-8.115574630519149443e-03
-8.144636898071074341e-03
-8.171918234418689558e-03
-8.196389365757337717e-03
-8.220039508914842724e-03
-8.244103877890712403e-03
-8.266632625727597661e-03
-8.284826481665716336e-03
-8.298910383017533976e-03
-8.312142589865290088e-03
-8.326859126383848522e-03
-8.341890577580857516e-03
-8.354750053987331296e-03
-8.365386695253577629e-03
-8.376193905626962838e-03
-8.388267887763993860e-03
-8.399239073945916415e-03
-8.405900781234067892e-03
-8.408196326564665660e-03
-8.409146543259039472e-03
-8.410815223758845091e-03
-8.411837026002087769e-03
-8.409853602904157274e-03
-8.405397802880886990e-03
-8.401736141258641863e-03
-8.400761321625458550e-03
-8.400533595242593021e-03
-8.397887029798151506e-03
-8.392622351804990277e-03
-8.387676926733009936e-03
-8.385199421612692106e-03
-8.384013599680779916e-03
-8.381908278410416663e-03
-8.379428819311456750e-03
-8.379726844118445817e-03
-8.384455638691879625e-03
-8.391185202685783745e-03
-8.395832958814433006e-03
-8.396923376577512810e-03
-8.396232634395477124e-03
-8.395462783553752500e-03
-8.393876072520100803e-03
-8.390110072643015837e-03
-8.385305554941510295e-03
-8.382783200348907157e-03
-8.384374628616998726e-03
-8.388296458601786701e-03
-8.391493118993738343e-03
-8.393374478479201026e-03
-8.396073517772991573e-03
-8.401141421752054278e-03
-8.407349527829481237e-03
-8.412535733365278726e-03
-8.416754107052074052e-03
-8.422234938688533817e-03
-8.430171762556280465e-03
-8.438805378724937439e-03
-8.445509095982146192e-03
-8.450064735296601570e-03
-8.454678644486962255e-03
-8.460764124599258820e-03
-8.466931328232264742e-03
-8.470926640775530009e-03
-8.472825791780661669e-03
-8.475085239649919958e-03
-8.479389339848762350e-03
-8.484608737356525918e-03
-8.488612850452329633e-03
-8.491373738253808756e-03
-8.495075610119350376e-03
-8.501124896829755084e-03
-8.508224600489945957e-03
-8.514156838967543162e-03
-8.518762097933563204e-03
-8.523965109138239779e-03
-8.530824406447395925e-03
-8.537738170138841828e-03
-8.542359334325474660e-03
-8.544637741685916568e-03
-8.546816905304665049e-03
-8.550377318120269340e-03
-8.554107562691599942e-03
-8.555931761150289624e-03
-8.555962527207498433e-03
-8.556570624967781841e-03
-8.559358583914458002e-03
-8.563163060658712800e-03
-8.565787337224416848e-03
-8.567061084154496686e-03
-8.569047644561492497e-03
-8.573168624950238195e-03
-8.578221883700620082e-03
-8.581964903791735114e-03
-8.583986793862489681e-03
-8.585864776516557995e-03
-8.588452970612765400e-03
-8.590202597929485345e-03
-8.589021546964911366e-03
-8.585253918532095158e-03
-8.581708068003847736e-03
-8.580589918877617669e-03
-8.581336820417662797e-03
-8.582058749012176982e-03
-8.582399427373179485e-03
-8.583838018819992324e-03
-8.587122455321439390e-03
-8.590516063896195056e-03
-8.591370881672454746e-03
-8.588913972883305270e-03
-8.584488080922023784e-03
-8.579084295369562851e-03
-8.571835043368180446e-03
-8.561863982963279635e-03
-8.551196480172582742e-03
-8.544698210176379649e-03
-8.546579404428157958e-03
-8.557068374626938118e-03
-8.572122113916627595e-03
-8.584918153821985073e-03
-8.586325435110659862e-03
-8.564672855430444098e-03
-8.508177293376261233e-03
-8.411404310055704131e-03
-8.282011741666348709e-03
-8.142249609663681359e-03
-8.023748633490441345e-03
-7.959238146701286959e-03
-7.975296919895819014e-03
-8.086791372672368083e-03
-8.291917993915272345e-03
-8.569144249226761517e-03
-8.879658274789464095e-03
-9.176548561904428886e-03
-9.416696207456070125e-03
-9.569490041756849655e-03
-9.620169652792210507e-03
-9.570063810603966076e-03
-9.435910495833440756e-03
-9.247062610973683441e-03
-9.038517547617565262e-03
-8.841424699254793462e-03
-8.676222257517312089e-03
-8.551754110889070448e-03
-8.468424319095665259e-03
-8.421060750733568370e-03
-8.400102758988369986e-03
-8.393388742415151815e-03
-8.390063313672192075e-03
-8.384301033082706966e-03
-8.375427124211611007e-03
-8.364636137323673212e-03
-8.352212633561100635e-03
-8.337969414010706556e-03
-8.323138697936488875e-03
-8.310221515926466060e-03
-8.300530113076028116e-03
-8.292722476564252237e-03
-8.284500444520722512e-03
-8.275361105437315304e-03
-8.266810105188307153e-03
-8.259867015536525789e-03
-8.253340482976915041e-03
-8.245223291614837621e-03
-8.235227187939911375e-03
-8.224916345465052916e-03
-8.215243662310790090e-03
-8.204911641885066428e-03
-8.191867505781812511e-03
-8.175929099708280010e-03
-8.158964698541727387e-03
-8.142375693312329729e-03
-8.125279176048043339e-03
-8.105770386235899155e-03
-8.083414898082282724e-03
-8.059519896766040997e-03
-8.034924672484330954e-03
-8.008562147062654041e-03
-7.978984646727674615e-03
-7.946879290031546098e-03
-7.915109331810459350e-03
-7.886105160945988332e-03
-7.859989176182944487e-03
-7.835769496727320108e-03
-7.813747630462787239e-03
-7.795723502389787819e-03
-7.782751174178561410e-03
-7.773669655307150969e-03
-7.766591575745131898e-03
-7.761428668104587182e-03
-7.760058602670244672e-03
-7.763948004078089112e-03
-7.772516463071903019e-03
-7.784463292989045498e-03
-7.800146402076692242e-03
-7.821609032296471253e-03
-7.850067237680325577e-03
-7.884167939598465957e-03
-7.921287592949776898e-03
-7.960013769623625404e-03
-8.000439563559773315e-03
-8.042064903566913808e-03
-8.082508180754623475e-03
-8.119116906501355757e-03
-8.151455889112558043e-03
-8.181275533191884747e-03
-8.209901863465214611e-03
-8.236482428097605807e-03
-8.259342266628411436e-03
-8.278453735970624575e-03
-8.295552273648990060e-03
-8.311751039360215643e-03
-8.326006068073401462e-03
-8.336605710143876399e-03
-8.343641567025520886e-03
-8.349029529861546131e-03
-8.354038589269214415e-03
-8.357754722973204098e-03
-8.358621553639833737e-03
-8.356916812059255600e-03
-8.354691004886337022e-03
-8.353200861203741862e-03
-8.351382089888387608e-03
-8.347529805552894588e-03
-8.341939939307301682e-03
-8.336897753825107601e-03
-8.333996185540575724e-03
-8.332397150397803653e-03
-8.330328461937789794e-03
-8.327672328491493928e-03
-8.326060051648853308e-03
-8.326395276363305828e-03
-8.327309337412039034e-03
-8.326760116699763459e-03
-8.324626937606613777e-03
-8.322764156840377348e-03
-8.322469435690444534e-03
-8.322861658957283679e-03
-8.322362750220874822e-03
-8.321157154800371339e-03
-8.321156110252865556e-03
-8.323483129553336385e-03
-8.326973688306192958e-03
-8.329804474956029048e-03
-8.332020185756067523e-03
-8.335435147435128755e-03
-8.340981255520697399e-03
-8.347119061572488494e-03
-8.351526054920734368e-03
-8.353833105727388395e-03
-8.355785372600125355e-03
-8.358738945098134407e-03
-8.361983011054062095e-03
-8.364110792836082497e-03
-8.365375988160339560e-03
-8.367625907138699290e-03
-8.371835278728957663e-03
-8.376674955664971389e-03
-8.380174031003825158e-03
-8.382255612755384541e-03
-8.384678696001846010e-03
-8.388465603118344660e-03
-8.392360550920017689e-03
-8.394457043988277564e-03
-8.394774140662470199e-03
-8.395253838496631593e-03
-8.397192645074684145e-03
-8.399628759348501741e-03
-8.400856796478896674e-03
-8.400916767914549249e-03
-8.401582604318948502e-03
-8.403868703532791154e-03
-8.406529585802409443e-03
-8.407659349534758395e-03
-8.407206199702923002e-03
-8.406953492202273726e-03
-8.408033644519655181e-03
-8.409457080719088054e-03
-8.409708491696168270e-03
-8.409162829112432763e-03
-8.409883423530035637e-03
-8.412976259312501121e-03
-8.417107927081892219e-03
-8.420267912457170961e-03
-8.422425773221402581e-03
-8.425492309486332099e-03
-8.430659302731078122e-03
-8.436730656305313839e-03
-8.441630744811606801e-03
-8.444898991626970802e-03
-8.447703885498614521e-03
-8.450457247852396353e-03
-8.451522874717733516e-03
-8.449035823860544595e-03
-8.443509579043469507e-03
-8.437714090094826369e-03
-8.433930514500802278e-03
-8.432158805381367861e-03
-8.431430072368122086e-03
-8.432071165549642755e-03
-8.435540162080206947e-03
-8.441962147997203805e-03
-8.448841171987837503e-03
-8.452939816834417405e-03
-8.453038592669671544e-03
-8.450136768665569148e-03
-8.445233264542641172e-03
-8.438161457680790414e-03
-8.429368567166079310e-03
-8.422146652546739012e-03
-8.421688603012645116e-03
-8.431128568042088600e-03
-8.448418162328897793e-03
-8.466672122478483692e-03
-8.476428039083829316e-03
-8.466979551770449988e-03
-8.427123121498982655e-03
-8.348347647920516604e-03
-8.231178334767651553e-03
-8.090519532582681958e-03
-7.954850228013376698e-03
-7.858805443109975752e-03
-7.833674564879629723e-03
-7.900179915752900822e-03
-8.063996207339706526e-03
-8.312727140581996355e-03
-8.615421921144004666e-03
-8.927633900551561197e-03
-9.202241392571697265e-03
-9.401275732584552652e-03
-9.503004428722469643e-03
-9.502930150945223045e-03
-9.411798974518196040e-03
-9.253118994497466429e-03
-9.059068997435269777e-03
-8.863056983216873602e-03
-8.691014337845240009e-03
-8.556470069600363715e-03
-8.461885929067491929e-03
-8.403299734165972298e-03
-8.373584462246541280e-03
-8.363297454782332024e-03
-8.361876363050364802e-03
-8.360835475337459119e-03
-8.356633648444111370e-03
-8.350036380758839305e-03
-8.342616778986674392e-03
-8.334400934097744088e-03
-8.324895284439307735e-03
-8.315172347284615142e-03
-8.307512279413122383e-03
-8.302811488816543017e-03
-8.299347292239167215e-03
-8.294797604903755145e-03
-8.288968701731271038e-03
-8.283645860267281960e-03
-8.279840274472835202e-03
-8.276197688176932868e-03
-8.270688970987491798e-03
-8.263202417977592515e-03
-8.255476263838238890e-03
-8.248521227921525381e-03
-8.241134798825610480e-03
-8.231552554700328692e-03
-8.219902986430750735e-03
-8.208002180144271728e-03
-8.196706440382266895e-03
-8.184441641071340742e-03
-8.168944824910182728e-03
-8.149869030598286615e-03
-8.128763162801087502e-03
-8.106599768437276407e-03
-8.082408001960937616e-03
-8.054996633044918600e-03
-8.025408573986810706e-03
-7.996653698444039851e-03
-7.970947128366174389e-03
-7.948067397995335973e-03
-7.926888570075065268e-03
-7.907804473350718913e-03
-7.892627916150482884e-03
-7.882143255139932927e-03
-7.874815075059939454e-03
-7.868603877311803121e-03
-7.863560633452684745e-03
-7.861783106130863438e-03
-7.864916555887059915e-03
-7.872685522530901286e-03
-7.884390527272758242e-03
-7.901070739909058990e-03
-7.925023422430267639e-03
-7.957028625495058197e-03
-7.994908490223991832e-03
-8.035380834905073849e-03
-8.076790358896924690e-03
-8.119212515475581274e-03
-8.162102470176169772e-03
-8.203025070572562624e-03
-8.239426821926493227e-03
-8.271101900368392143e-03
-8.299937783106966713e-03
-8.327193442934716777e-03
-8.351911826678716858e-03
-8.372484385331266377e-03
-8.389066761796902180e-03
-8.403452333923831785e-03
-8.416618921031756781e-03
-8.427437435563027782e-03
-8.434416849965093235e-03
-8.438103456584829590e-03
-8.440785070276773244e-03
-8.443852947436084402e-03
-8.446430965270951274e-03
-8.447153358544215798e-03
-8.446610116510357147e-03
-8.447015451246856280e-03
-8.449461081948352742e-03
-8.452468934346408710e-03
-8.453828566969672637e-03
-8.453254038144061150e-03
-8.452330315582835124e-03
-8.451981043613460837e-03
-8.451076338412088357e-03
-8.448152928559080760e-03
-8.443844708049085337e-03
-8.440585706245409825e-03
-8.439884649916103501e-03
-8.440808581218843185e-03
-8.441639898926376825e-03
-8.442315621535440018e-03
-8.444253648879476715e-03
-8.447891480353044574e-03
-8.451516479995582407e-03
-8.453200899729335430e-03
-8.453293530413174064e-03
-8.454031186376753312e-03
-8.456710272234923068e-03
-8.460186537870287987e-03
-8.462656749093969838e-03
-8.464204349249557571e-03
-8.466605042840592496e-03
-8.470716704154541629e-03
-8.475118248617121916e-03
-8.477912248249128493e-03
-8.479209553348035500e-03
-8.480864154332464627e-03
-8.483836286786684486e-03
-8.486851072061075973e-03
-8.488223907664833520e-03
-8.488320151580261083e-03
-8.489210094760843775e-03
-8.491947972142595280e-03
-8.495204616379953277e-03
-8.497137731941604641e-03
-8.497923224867757336e-03
-8.499457182763488564e-03
-8.502645710170512322e-03
-8.506039204076961888e-03
-8.507722056182632012e-03
-8.507879084959150268e-03
-8.508524489630893070e-03
-8.510789326689270629e-03
-8.513512775184622211e-03
-8.515041310259275839e-03
-8.515669838196770688e-03
-8.517270290893235243e-03
-8.520589594992911131e-03
-8.523996479298624057e-03
-8.525512558819069858e-03
-8.525428899436289162e-03
-8.525949214096930837e-03
-8.528337319909691169e-03
-8.531445631630461823e-03
-8.533586567694697797e-03
-8.535109056023839139e-03
-8.538079951460773517e-03
-8.543463677677715432e-03
-8.549656473354080854e-03
-8.554420871112593597e-03
-8.557669489028417106e-03
-8.561431374717638418e-03
-8.567165131918050985e-03
-8.574096615855278034e-03
-8.580721074922170385e-03
-8.587233069375430419e-03
-8.595445031200419153e-03
-8.606286003022560818e-03
-8.618312591698934141e-03
-8.629251010026289803e-03
-8.638441248990508942e-03
-8.646898680096944123e-03
-8.655081899694312339e-03
-8.661655119473846490e-03
-8.665136521108620163e-03
-8.666262216364458565e-03
-8.667773651390524997e-03
-8.671726994880826420e-03
-8.677713626920213752e-03
-8.684102855237100724e-03
-8.690355458967040023e-03
-8.697165004146471118e-03
-8.704359304614698103e-03
-8.709693950240021340e-03
-8.710485201675707834e-03
-8.706152663540573169e-03
-8.698554599965102607e-03
-8.690080398830225122e-03
-8.682430267168200419e-03
-8.677661946878079124e-03
-8.679308842117405484e-03
-8.690583509661783251e-03
-8.710280813095484104e-03
-8.730336795363526775e-03
-8.737673359641737886e-03
-8.718761264081706375e-03
-8.663690680669506802e-03
-8.569007638940378049e-03
-8.440858964129053371e-03
-8.298234918775897195e-03
-8.172663384039477452e-03
-8.101140869914789239e-03
-8.114265482411162078e-03
-8.225902928339620668e-03
-8.429310809680536781e-03
-8.699481428619601844e-03
-8.998584780266900146e-03
-9.282886527242876704e-03
-9.511423736813589061e-03
-9.655288313868906278e-03
-9.703582462843311079e-03
-9.662811976492033383e-03
-9.551125092409872008e-03
-9.392183522775881740e-03
-9.211569344383163660e-03
-9.034251909199386005e-03
-8.880634103046305960e-03
-8.762105894385101637e-03
-8.679750937914787468e-03
-8.627695750213406484e-03
-8.598075100145204791e-03
-8.583560626811932714e-03
-8.577106060693258718e-03
-8.571956585190141503e-03
-8.563631085669355658e-03
-8.551737650091584958e-03
-8.538798408134576703e-03
-8.526889314252435875e-03
-8.515823801726000314e-03
-8.504641987016101079e-03
-8.493865924355911007e-03
-8.485185466211993613e-03
-8.479000673846777414e-03
-8.473348332511588046e-03
-8.465890348738047341e-03
-8.456405151113764035e-03
-8.446478094568879089e-03
-8.436894331713528511e-03
-8.426360178555926048e-03
-8.413310676547562997e-03
-8.398278895381722231e-03
-8.383508318435426918e-03
-8.370266045908422367e-03
-8.357450078841290042e-03
-8.343277701209799932e-03
-8.327621355407315018e-03
-8.311758207288317407e-03
-8.295989003305196535e-03
-8.278605424005165692e-03
-8.257826715259904485e-03
-8.234160000591976905e-03
-8.209960617710997458e-03
-8.186756335801731801e-03
-8.163935530764275181e-03
-8.140484065263452543e-03
-8.117232276378519296e-03
-8.096388861922244884e-03
-8.078945669164363380e-03
-8.063558405719159841e-03
-8.048535035730202541e-03
-8.034297232037416331e-03
-8.023012006291119907e-03
-8.015955326782153376e-03
-8.012242377077627084e-03
-8.010611051989368486e-03
-8.011689610644438450e-03
-8.017516798736950417e-03
-8.028927699224513298e-03
-8.044424195056253807e-03
-8.062119869584410958e-03
-8.082080286207920378e-03
-8.105803099223884284e-03
-8.133534649125168103e-03
-8.163146343183349390e-03
-8.192186133664115105e-03
-8.220358817330478129e-03
-8.249087023077880318e-03
-8.278800540292263407e-03
-8.307693098179688013e-03
-8.333627484505404248e-03
-8.356525517021904520e-03
-8.377947425346487370e-03
-8.398489738996404302e-03
-8.416655924033853223e-03
-8.430789543652238843e-03
-8.441382417847528158e-03
-8.450530493168531554e-03
-8.459270224112823422e-03
-8.466488337362815947e-03
-8.470921123264245345e-03
-8.473435909995505680e-03
-8.476323965607178434e-03
-8.480428949660629573e-03
-8.483966339176588628e-03
-8.484658094756611368e-03
-8.482351210386622140e-03
-8.478713637660778915e-03
-8.474663118130934189e-03
-8.469260471662009085e-03
-8.461659969293452641e-03
-8.453348090966964282e-03
-8.447376651154882982e-03
-8.445359410964695807e-03
-8.446070694903872259e-03
-8.447349414128417153e-03
-8.448620932599610819e-03
-8.450715501686465944e-03
-8.453570563401574187e-03
-8.455373835047217540e-03
-8.454608718669827383e-03
-8.452251175851301437e-03
-8.450956817105229751e-03
-8.452119211276301267e-03
-8.454614899927482413e-03
-8.456792988752627818e-03
-8.458886521001221862e-03
-8.462530846428870795e-03
-8.468129649966366773e-03
-8.473807968514272121e-03
-8.477503520311216803e-03
-8.479405719914135872e-03
-8.481447937901185133e-03
-8.484579868436802411e-03
-8.487550802896251176e-03
-8.488803721265881716e-03
-8.488780577259802049e-03
-8.489405013308803927e-03
-8.491454474606535338e-03
-8.493485334776501930e-03
-8.493839609156630943e-03
-8.492985685920988181e-03
-8.492948127977482942e-03
-8.494574569930541524e-03
-8.496374761817037519e-03
-8.496524589727690382e-03
-8.495300740955778404e-03
-8.494650515707141344e-03
-8.495556174526203846e-03
-8.496853675428864272e-03
-8.497088861718715344e-03
-8.496752547419966772e-03
-8.497721948227813724e-03
-8.500650751671810085e-03
-8.503942698838692221e-03
-8.505781134415557262e-03
-8.506454746961742558e-03
-8.507790882416802272e-03
-8.510499544157142451e-03
-8.513125542455843991e-03
-8.514079821563097852e-03
-8.513937687469080862e-03
-8.514790038290873456e-03
-8.517499301694653191e-03
-8.520628817398789856e-03
-8.522522097624133861e-03
-8.523650559931874107e-03
-8.525957476873182242e-03
-8.530069212193585118e-03
-8.534207932876222702e-03
-8.536321231084749786e-03
-8.536539494638025957e-03
-8.536659909811415703e-03
-8.537486225974711546e-03
-8.537794060563012530e-03
-8.536376581006787853e-03
-8.534283871605518809e-03
-8.534039723524072460e-03
-8.536773130281323160e-03
-8.541088614471711860e-03
-8.545121406352064117e-03
-8.548873206050792983e-03
-8.553618199827311627e-03
-8.559310557892487945e-03
-8.563748279450016446e-03
-8.564817393440768423e-03
-8.562824310587729276e-03
-8.559746875207932190e-03
-8.556507051937216335e-03
-8.552193150793616777e-03
-8.546544763086633481e-03
-8.542417502538373827e-03
-8.544596711032276248e-03
-8.555743188946593816e-03
-8.573578250878628737e-03
-8.591456168809274638e-03
-8.600308360122918550e-03
-8.589458103145672027e-03
-8.547407480079240172e-03
-8.465750354337902087e-03
-8.346133960536489260e-03
-8.205347699863073732e-03
-8.073580381485631619e-03
-7.986234933189296711e-03
-7.974289083862313651e-03
-8.057225563011536154e-03
-8.238573898135724549e-03
-8.502995577064766802e-03
-8.816491677454074694e-03
-9.132607558699884151e-03
-9.404001130254340673e-03
-9.593997046435496015e-03
-9.682747059094659950e-03
-9.667557819939585212e-03
-9.560830650500643998e-03
-9.387650809373274119e-03
-9.181444961748497224e-03
-8.976198746241705051e-03
-8.797847390343931789e-03
-8.659841420371331214e-03
-8.564715333752670121e-03
-8.508338275205661050e-03
-8.482656905450613669e-03
-8.476682608615162748e-03
-8.478499764207917885e-03
-8.479126482581365518e-03
-8.475240831105443351e-03
-8.467890229108241545e-03
-8.458641082009310183e-03
-8.447460796586463844e-03
-8.434063392308054422e-03
-8.419890643383259182e-03
-8.407428467981986273e-03
-8.397621498837781057e-03
-8.389005800524382619e-03
-8.379863041943562754e-03
-8.370478126171523522e-03
-8.362387079282123173e-03
-8.355664993888636816e-03
-8.348069256384489656e-03
-8.337353771461938207e-03
-8.323713274429305614e-03
-8.309104858208963412e-03
-8.294434330799686089e-03
-8.278463034199965570e-03
-8.259855727489606725e-03
-8.239430549117602795e-03
-8.219403925412562678e-03
-8.200599741376025931e-03
-8.181433263724035773e-03
-8.160062883230467107e-03
-8.136769285895576603e-03
-8.113352626782021140e-03
-8.090487596452098154e-03
-8.066793427092508115e-03
-8.040969716212606824e-03
-8.014064192357466324e-03
-7.988713635516340658e-03
-7.966347297922784024e-03
-7.946125458925534790e-03
-7.926959299064837913e-03
-7.909691403224226522e-03
-7.896326977764132199e-03
-7.887359716995945291e-03
-7.880966332039513605e-03
-7.875333796270554687e-03
-7.871069533920454359e-03
-7.870486703503584702e-03
-7.874796407455791208e-03
-7.883045838304156977e-03
-7.894158694745646507e-03
-7.909105357390330479e-03
-7.930040860000988137e-03
-7.957458173359901674e-03
-7.989191670211410329e-03
-8.022614429123954213e-03
-8.057041776520057486e-03
-8.093158380494827955e-03
-8.130470119768029580e-03
-8.166525277993956847e-03
-8.199144603608685827e-03
-8.228633665243623163e-03
-8.256870889842685135e-03
-8.284422666287576814e-03
-8.309558869422844357e-03
-8.330452536862216484e-03
-8.347500912300576115e-03
-8.362583657343042667e-03
-8.376330642968140075e-03
-8.387225707398150362e-03
-8.393828369229762096e-03
-8.397071194848348269e-03
-8.399454459384827695e-03
-8.402198366423590734e-03
-8.404187298479554036e-03
-8.404047761461768198e-03
-8.402407777507489572e-03
-8.401214270776781803e-03
-8.401129859681485956e-03
-8.400714231267347384e-03
-8.398592335932974010e-03
-8.395609140826149411e-03
-8.393925760726006491e-03
-8.394222706791467162e-03
-8.394827485308457155e-03
-8.393985945818201178e-03
-8.392202146744884989e-03
-8.391488384627424427e-03
-8.392607634613165682e-03
-8.394114736454962380e-03
-8.394475996856370220e-03
-8.394281855299669595e-03
-8.395455355021666163e-03
-8.398535468780533864e-03
-8.401792246799171318e-03
-8.403413535708134305e-03
-8.403782253167487240e-03
-8.404770099244117040e-03
-8.407113589933868161e-03
-8.409563008341388451e-03
-8.410971547106285348e-03
-8.412338197281769153e-03
-8.415825719708756175e-03
-8.421965550756228824e-03
-8.428833794035629073e-03
-8.434348536409726899e-03
-8.438605742326715786e-03
-8.443163882841492676e-03
-8.448404802642936126e-03
-8.452717948843908174e-03
-8.454672590129878873e-03
-8.455144558473499591e-03
-8.456371970537907706e-03
-8.459138196883564734e-03
-8.461893342366045082e-03
-8.463005033597965562e-03
-8.463064993391642560e-03
-8.464129135605302084e-03
-8.466987647680522533e-03
-8.470229549514519951e-03
-8.472330418346734129e-03
-8.473791905046674372e-03
-8.476313904590106890e-03
-8.480134782599981630e-03
-8.483264875947343214e-03
-8.483772877397679352e-03
-8.482114685835770787e-03
-8.480482222452997987e-03
-8.480282890660668926e-03
-8.481376038048002788e-03
-8.484078873141285768e-03
-8.490846167788132157e-03
-8.504703333344904373e-03
-8.525871095472360023e-03
-8.550648124255775043e-03
-8.573897417689246500e-03
-8.592066244920777002e-03
-8.603459275829767813e-03
-8.606553706268522258e-03
-8.599738723797685849e-03
-8.583417109458920530e-03
-8.561479505611429772e-03
-8.539435818522457880e-03
-8.520794496289830350e-03
-8.505736277667874656e-03
-8.493265235985423753e-03
-8.483640710406671614e-03
-8.477893852787561288e-03
-8.475503090819536470e-03
-8.473906897221175627e-03
-8.470905906695030615e-03
-8.466853998715266616e-03
-8.463674967822581649e-03
-8.462028498737490453e-03
-8.460470694465314564e-03
-8.457699663177928318e-03
-8.454716732644997762e-03
-8.453839000940419068e-03
-8.455836448988425860e-03
-8.459068571602562300e-03
-8.461776956702997052e-03
-8.464384040799374440e-03
-8.468657086576184684e-03
-8.474886194782827939e-03
-8.480915317596780800e-03
-8.484323667166270358e-03
-8.484827639950582451e-03
-8.483837983558978335e-03
-8.482137239293120745e-03
-8.479192181895450070e-03
-8.475162041036495009e-03
-8.472656414163760863e-03
-8.475356245868979552e-03
-8.484734997904138515e-03
-8.498673461878613472e-03
-8.513265016026066653e-03
-8.525029857225401714e-03
-8.530724732928427964e-03
-8.525946698575257929e-03
-8.506119227769644645e-03
-8.470656959691137342e-03
-8.426589465449569466e-03
-8.387528895578437796e-03
-8.368060378564230392e-03
-8.377222832300624394e-03
-8.414184182591039410e-03
-8.466909289250753451e-03
-8.514181905419838936e-03
-8.531704974442805289e-03
-8.501075138265279732e-03
-8.417439633488753292e-03
-8.291924484034141757e-03
-8.148887945874009817e-03
-8.020976801720978641e-03
-7.943645904742885691e-03
-7.948111023559280286e-03
-8.052383498903826001e-03
-8.253775762676402589e-03
-8.527821737545177375e-03
-8.834876270785633687e-03
-9.130363399105674571e-03
-9.373570545207031771e-03
-9.533511149629752754e-03
-9.593405860616917302e-03
-9.554045252557428689e-03
-9.433476445453193096e-03
-9.261151057435334719e-03
-9.068917750212511161e-03
-8.883835045850935544e-03
-8.725339087598135701e-03
-8.604937642896950956e-03
-8.525759178236360508e-03
-8.482379074772122482e-03
-8.463355798989045595e-03
-8.456539453191502451e-03
-8.453599515460959515e-03
-8.450570384185202011e-03
-8.445467373421142870e-03
-8.436762001618084567e-03
-8.424301128733975227e-03
-8.410330977070742606e-03
-8.398054259472931271e-03
-8.388792334970864364e-03
-8.381136097719872960e-03
-8.373109546569659431e-03
-8.364505798070119916e-03
-8.356479174004494831e-03
-8.349286495214243778e-03
-8.341530766033248764e-03
-8.332027108426710849e-03
-8.321631721102881740e-03
-8.312322172032956050e-03
-8.304594689315457356e-03
-8.296636285706105937e-03
-8.286404230834064355e-03
-8.273859627468243758e-03
-8.260457980329054609e-03
-8.246758199939514464e-03
-8.231504510207904302e-03
-8.213393723964368745e-03
-8.192987220639536688e-03
-8.172054374752402497e-03
-8.151239927034351421e-03
-8.129309838983632061e-03
-8.105070391296801194e-03
-8.079357706264882200e-03
-8.054372115687418593e-03
-8.031264880033934378e-03
-8.009270161575840138e-03
-7.987524955758983428e-03
-7.966999947539441657e-03
-7.949807716449855746e-03
-7.936782649953667140e-03
-7.926642817703125066e-03
-7.917916816775361424e-03
-7.911063401376462745e-03
-7.907968767559900650e-03
-7.909580022946515604e-03
-7.914913075386250177e-03
-7.922707186021176948e-03
-7.933353964900420607e-03
-7.948414397766723205e-03
-7.968418950153139876e-03
-7.992017875046619063e-03
-8.017654684407812468e-03
-8.045420650862701584e-03
-8.076475823990098002e-03
-8.110773815640471771e-03
-8.146194779772367167e-03
-8.180317945604701629e-03
-8.212509129611784628e-03
-8.243609193355519796e-03
-8.273790819489083848e-03
-8.301602268495493139e-03
-8.325512343836105611e-03
-8.345791215406742763e-03
-8.364090428013616976e-03
-8.381244099624571980e-03
-8.396247398918433788e-03
-8.407753395574533647e-03
-8.416011708125498494e-03
-8.422635503250973377e-03
-8.428607946739127485e-03
-8.433319191521149519e-03
-8.435902504493096934e-03
-8.436883357680849405e-03
-8.437725729704678712e-03
-8.438859433734768531e-03
-8.438999106459385557e-03
-8.436857717991724098e-03
-8.433034477502134030e-03
-8.429539083321843998e-03
-8.427590566730223942e-03
-8.426633676423780916e-03
-8.425771201567063690e-03
-8.425450920795544973e-03
-8.426944949653668651e-03
-8.430327807354866601e-03
-8.433860089992447143e-03
-8.435807405651024951e-03
-8.436344694748654574e-03
-8.437022630213453223e-03
-8.438586843450798444e-03
-8.440163460098699250e-03
-8.440865072338493355e-03
-8.441450233541241549e-03
-8.443566383967881367e-03
-8.447502779354713540e-03
-8.451559652304711096e-03
-8.454016766469941296e-03
-8.455132533498815189e-03
-8.456532153318532460e-03
-8.458889377103510562e-03
-8.461101646633597748e-03
-8.462041984529175206e-03
-8.462378622927599695e-03
-8.463861522501196430e-03
-8.467007406146784959e-03
-8.470371172453508915e-03
-8.472437009966601526e-03
-8.473569250752505805e-03
-8.475392373787750747e-03
-8.478509705094275026e-03
-8.481728287568627775e-03
-8.483831788097086560e-03
-8.485395790717137343e-03
-8.488082746791979910e-03
-8.492361040623671448e-03
-8.496805670306228561e-03
-8.499982837513230319e-03
-8.502357730577846801e-03
-8.505609548863628938e-03
-8.510281021867556125e-03
-8.514965995422599590e-03
-8.518125838074642325e-03
-8.520037962156506647e-03
-8.522241231791368929e-03
-8.525307805445700784e-03
-8.528046734141637303e-03
-8.529222068876305199e-03
-8.529381114652394291e-03
-8.530257327496574421e-03
-8.532582103652047376e-03
-8.535315449466514270e-03
-8.537280594572583398e-03
-8.538809520135930489e-03
-8.541007888550453467e-03
-8.543649283911066913e-03
-8.544758628520918858e-03
-8.542715090121277832e-03
-8.538209324023231586e-03
-8.533470769506546622e-03
-8.529797394055136164e-03
-8.526642006106087066e-03
-8.523295059256639702e-03
-8.520617838612904241e-03
-8.520272431212687694e-03
-8.522457471805026247e-03
-8.525334500204677021e-03
-8.527078742684946963e-03
-8.527901457529881227e-03
-8.529418167858262428e-03
-8.532342569169213548e-03
-8.535702860187472513e-03
-8.538575437812046670e-03
-8.541794836051162451e-03
-8.547140279803275981e-03
-8.555047173942667213e-03
-8.563999972595890200e-03
-8.572481776544044196e-03
-8.580831726709687787e-03
-8.590479635274990422e-03
-8.601643282312164060e-03
-8.612699045488949115e-03
-8.622130845717201550e-03
-8.630403756592157014e-03
-8.639207033803117733e-03
-8.649123762174660071e-03
-8.658914246083755997e-03
-8.667312324150388755e-03
-8.674721184341652874e-03
-8.682354786229347018e-03
-8.689996329403038011e-03
-8.695587424205487859e-03
-8.697431186045521262e-03
-8.696200721920791660e-03
-8.694150258563878089e-03
-8.692667733627200063e-03
-8.691443906131510189e-03
-8.690149891977812235e-03
-8.689957039928246363e-03
-8.692460493318645426e-03
-8.697273421419208714e-03
-8.701589249545208307e-03
-8.702503661988375896e-03
-8.699253035843311499e-03
-8.692747702401885587e-03
-8.683539542089287189e-03
-8.671462623971486899e-03
-8.657701461661277201e-03
-8.646368172258939513e-03
-8.642859350086042752e-03
-8.650108731380393851e-03
-8.666233649670687655e-03
-8.685021493353678457e-03
-8.697373781021868269e-03
-8.691946895317806746e-03
-8.656398942588917553e-03
-8.581854345886539767e-03
-8.469873495961224505e-03
-8.337134658724577874e-03
-8.213523717318883463e-03
-8.134223411595564376e-03
-8.130231294576685877e-03
-8.220842226867801361e-03
-8.408553350852219707e-03
-8.676268435337478740e-03
-8.988669153519602759e-03
-9.299762171866435626e-03
-9.564796831117335085e-03
-9.750881724379963436e-03
-9.841654937080447987e-03
-9.836429498880038674e-03
-9.747520413628288707e-03
-9.597689869606488774e-03
-9.416232639982147212e-03
-9.232410648838045714e-03
-9.068548840411957968e-03
-8.936838604378011947e-03
-8.840868051292097296e-03
-8.778760755486064368e-03
-8.744754423960700296e-03
-8.729718411336585479e-03
-8.723187050166475442e-03
-8.717130137053153566e-03
-8.708398581930792623e-03
-8.697473002999323716e-03
-8.685205216867272066e-03
-8.671308213156710132e-03
-8.655658715303852710e-03
-8.639696020028101234e-03
-8.625399159388534229e-03
-8.613040134365876691e-03
-8.600874798352517447e-03
-8.587387040197614479e-03
-8.573186176200108324e-03
-8.560073155509384524e-03
-8.548606886446465103e-03
-8.537487696303920626e-03
-8.525520063484826744e-03
-8.513356637351993800e-03
-8.502555980738254679e-03
-8.493226572912439265e-03
-8.483511668555746357e-03
-8.471668701161243556e-03
-8.457961413481889304e-03
-8.443862033262876723e-03
-8.429742216250051337e-03
-8.414246600812828533e-03
-8.396158157540719105e-03
-8.376116451389687204e-03
-8.355803742475074666e-03
-8.335776906653274629e-03
-8.315015191556121912e-03
-8.292835274448696545e-03
-8.270473267098288339e-03
-8.250047780904554498e-03
-8.232259918540320645e-03
-8.215989719115808498e-03
-8.200361867285286752e-03
-8.186427221251096897e-03
-8.176104726619212726e-03
-8.169805887617438353e-03
-8.166013153970303265e-03
-8.163424173400879447e-03
-8.162751174817071617e-03
-8.165738475943937549e-03
-8.172786301371881904e-03
-8.182471256080899730e-03
-8.193610895826897514e-03
-8.206989707152924363e-03
-8.224328896295800967e-03
-8.245893619274533362e-03
-8.270007413152426559e-03
-8.295090117083778192e-03
-8.321341578582303056e-03
-8.349714065439993102e-03
-8.379631168174332331e-03
-8.408712154150311049e-03
-8.435017837109126324e-03
-8.458826178180983008e-03
-8.481541831802502304e-03
-8.503252182010727009e-03
-8.522286312376003981e-03
-8.537368931201166564e-03
-8.549389494837156614e-03
-8.560337120370044989e-03
-8.570842345945843543e-03
-8.579656006427353182e-03
-8.585699049969924487e-03
-8.589779643060565378e-03
-8.593578611000086617e-03
-8.597328905343365815e-03
-8.599451066998121604e-03
-8.598709177287515784e-03
-8.595954253570113959e-03
-8.593069897207735244e-03
-8.590579337042604860e-03
-8.587202121487749057e-03
-8.581937175926599229e-03
-8.575753032161051795e-03
-8.570521919388951471e-03
-8.566664146629918153e-03
-8.562764627396645539e-03
-8.557697277575182851e-03
-8.552318154482792603e-03
-8.548375047953176570e-03
-8.546123737185159358e-03
-8.543931067611618829e-03
-8.540412204042070396e-03
-8.536173773076029606e-03
-8.532811941882061449e-03
-8.530626860115643126e-03
-8.528275120186756472e-03
-8.524855266015780170e-03
-8.521495200949406879e-03
-8.520152131547917979e-03
-8.521183034718181337e-03
-8.522975802818598401e-03
-8.524128158483326029e-03
-8.525175055940524202e-03
-8.527510633724078720e-03
-8.531044412269020785e-03
-8.533900273778564569e-03
-8.534664616444448404e-03
-8.534174953760765084e-03
-8.534450473246215502e-03
-8.536249198160776944e-03
-8.538540667314386753e-03
-8.540455981655132797e-03
-8.542835639233452988e-03
-8.547114158196714162e-03
-8.553072196037861397e-03
-8.558652648327507925e-03
-8.562232933967094117e-03
-8.564343927250691463e-03
-8.566553556899362751e-03
-8.569111261160618220e-03
-8.570626473311379265e-03
-8.570205747949101102e-03
-8.569033734875740327e-03
-8.569117960146562310e-03
-8.570828280773899743e-03
-8.572553689998239218e-03
-8.572927817831739114e-03
-8.572587120314884360e-03
-8.573113239168922775e-03
-8.574703588174727165e-03
-8.575838197785550648e-03
-8.575411158932127673e-03
-8.574364682758229411e-03
-8.574542429270614816e-03
-8.576310979178627253e-03
-8.578183161554632161e-03
-8.578902623409014744e-03
-8.579066640123795759e-03
-8.580048193656857752e-03
-8.581768284112030812e-03
-8.582502993329587521e-03
-8.581104810641997094e-03
-8.578642395994923522e-03
-8.577196439243777240e-03
-8.577406514031035711e-03
-8.578044908434626081e-03
-8.578094164366677904e-03
-8.578388326976341127e-03
-8.580536447668823605e-03
-8.584637063542219226e-03
-8.588961204413284034e-03
-8.592037771307599672e-03
-8.594246040501098832e-03
-8.596733003960681241e-03
-8.599236725951184268e-03
-8.599973397466447247e-03
-8.597914701805525056e-03
-8.594433077340481522e-03
-8.592059178466157632e-03
-8.591949382824844508e-03
-8.593323244817723319e-03
-8.595353067784486378e-03
-8.598638268495339271e-03
-8.604096413430007556e-03
-8.610836144554243760e-03
-8.616120359244817603e-03
-8.617708600133723931e-03
-8.615596109365623867e-03
-8.611012699185549221e-03
-8.604365671755544523e-03
-8.595294264869024134e-03
-8.585014089838045176e-03
-8.577707989545624648e-03
-8.578558897877570921e-03
-8.590040536814808059e-03
-8.609945719682514029e-03
-8.632086488695824011e-03
-8.647479175447180672e-03
-8.644577713200360392e-03
-8.610483824775645723e-03
-8.535759708981746977e-03
-8.421628490956675067e-03
-8.284449469270455113e-03
-8.153480053218666729e-03
-8.063049244144195396e-03
-8.043595518066808808e-03
-8.114587463473989584e-03
-8.279432543234410344e-03
-8.522507910543947879e-03
-8.810586243377766316e-03
-9.100502439046375541e-03
-9.350629006173399524e-03
-9.530296442913333346e-03
-9.623250410997782542e-03
-9.626560166371065513e-03
-9.548883312467608409e-03
-9.409302885050513376e-03
-9.234461637585705818e-03
-9.052486508811796728e-03
-8.886174551110945230e-03
-8.749518828951452151e-03
-8.648504273625581829e-03
-8.583257600101198287e-03
-8.548950638860611587e-03
-8.536366102015238363e-03
-8.534480549145146561e-03
-8.534675841362681162e-03
-8.533219126565929485e-03
-8.529919923031299353e-03
-8.525026780575515467e-03
-8.518029409046100689e-03
-8.509011502300935573e-03
-8.499705531711183523e-03
-8.492115394301977954e-03
-8.486314526139009107e-03
-8.480469052487818807e-03
-8.473217373572190445e-03
-8.465304734250776383e-03
-8.458342954725866711e-03
-8.452453831659947903e-03
-8.446027829097976086e-03
-8.437874162038646111e-03
-8.428741710054196007e-03
-8.420095333290498335e-03
-8.411865725065321292e-03
-8.402332508603185812e-03
-8.390346557798368174e-03
-8.376839020668989597e-03
-8.363525880202817009e-03
-8.350582720500024717e-03
-8.336485018793100138e-03
-8.320208801779261851e-03
-8.302715355835942751e-03
-8.285638788185971035e-03
-8.268986713103630704e-03
-8.251061549030219364e-03
-8.230767740156356288e-03
-8.209188808344121749e-03
-8.188330408270338284e-03
-8.168825957114163316e-03
-8.149794559246822598e-03
-8.131004984903928215e-03
-8.114244429187938284e-03
-8.101838705432280394e-03
-8.094198582539784137e-03
-8.089661206359325188e-03
-8.086819793602413250e-03
-8.086204887060868818e-03
-8.089155095073274557e-03
-8.095618327335877759e-03
-8.104058585877418550e-03
-8.113649720563657908e-03
-8.125691953946407101e-03
-8.142202211423322719e-03
-8.163501719364902806e-03
-8.187989631371173777e-03
-8.214265622814090340e-03
-8.242550640812884924e-03
-8.273408720379101314e-03
-8.305620115015722310e-03
-8.336336728058875087e-03
-8.363551995136555076e-03
-8.387699065326124914e-03
-8.410308303395721760e-03
-8.431600602025548369e-03
-8.450262518629774594e-03
-8.465579264762905162e-03
-8.478830183877581264e-03
-8.491880088503029819e-03
-8.504799841996148538e-03
-8.515739122419945309e-03
-8.523238682622636189e-03
-8.527891387820169325e-03
-8.531234579817378524e-03
-8.533588496140715254e-03
-8.533929217092454250e-03
-8.531934464308950361e-03
-8.529215139621735761e-03
-8.527825791475854636e-03
-8.527952627250187656e-03
-8.527909850570022585e-03
-8.526475485475634025e-03
-8.524417084838961656e-03
-8.523187617362378010e-03
-8.522662493821510019e-03
-8.521082958091251436e-03
-8.517300265166378656e-03
-8.512232488173499673e-03
-8.507546047897447672e-03
-8.503422511496933414e-03
-8.498529297126850360e-03
-8.492230888926902491e-03
-8.485927551164626839e-03
-8.481573294701463817e-03
-8.479315481623747250e-03
-8.477439367021135513e-03
-8.474666236548864320e-03
-8.471662801077684685e-03
-8.469764749559885800e-03
-8.468793912702443638e-03
-8.467087078528822211e-03
-8.463752407715340390e-03
-8.460034759204112728e-03
-8.457854676329316229e-03
-8.457462422005835451e-03
-8.457364668395394788e-03
-8.456554373609362005e-03
-8.455919421717668708e-03
-8.456875775049433469e-03
-8.459141272526168182e-03
-8.460780192124473659e-03
-8.460527483220951772e-03
-8.459263654099069898e-03
-8.458687513713218989e-03
-8.459078837002597523e-03
-8.459233090012712591e-03
-8.458560593320117380e-03
-8.458286061657179986e-03
-8.459927720861310646e-03
-8.463070716210880154e-03
-8.465541486299729690e-03
-8.465870776650202822e-03
-8.464809201541446948e-03
-8.463941721704200741e-03
-8.463390567197616454e-03
-8.461789503028695897e-03
-8.458530353406346416e-03
-8.455119073001528957e-03
-8.453685831957874833e-03
-8.454592708498902265e-03
-8.456302835706381443e-03
-8.457566323137804404e-03
-8.458856296394949223e-03
-8.461144292978709305e-03
-8.463884417962440343e-03
-8.465199985496428894e-03
-8.464162562005186213e-03
-8.462047478227074579e-03
-8.460762203649182731e-03
-8.460507889129777540e-03
-8.459812131474149857e-03
-8.457841567905391780e-03
-8.455793844766608738e-03
-8.455458426430060431e-03
-8.456942058670703991e-03
-8.458689961118884271e-03
-8.459745113119825424e-03
-8.461092517113341649e-03
-8.464206265992904946e-03
-8.468787233061568498e-03
-8.472801345456104985e-03
-8.474768875659545453e-03
-8.475195833500226775e-03
-8.475297236714479307e-03
-8.474958622014664919e-03
-8.472925480960622965e-03
-8.469043059304938448e-03
-8.465390287866483843e-03
-8.464526641807006840e-03
-8.466959225393174207e-03
-8.471015756485591325e-03
-8.475098882209871481e-03
-8.479192446694221522e-03
-8.483704140086232443e-03
-8.487515697669591533e-03
-8.488216500894209607e-03
-8.484426580765275921e-03
-8.477178430776695708e-03
-8.468624169740921956e-03
-8.460046090001067942e-03
-8.452053017939368043e-03
-8.446589800521783417e-03
-8.447437031074152280e-03
-8.457404772904257920e-03
-8.474553126192356164e-03
-8.491120673811384731e-03
-8.495828085163423596e-03
-8.477077452606104901e-03
-8.425336980252216487e-03
-8.335937676156810958e-03
-8.213658922866308096e-03
-8.076906123942824769e-03
-7.956806630715202583e-03
-7.889321714439043870e-03
-7.904058210827794723e-03
-8.015674955437524646e-03
-8.220598418551879755e-03
-8.497665104402966907e-03
-8.810987360638709159e-03
-9.115626847271697183e-03
-9.366846081392082163e-03
-9.530570350528419152e-03
-9.590324596487133021e-03
-9.547983656494750393e-03
-9.420146837761196254e-03
-9.233607561683407697e-03
-9.020885613854568927e-03
-8.814388044321223165e-03
-8.639250557982694131e-03
-8.508187325030978215e-03
-8.421673981388671029e-03
-8.372638521455279953e-03
-8.351352435216168046e-03
-8.347566805741132509e-03
-8.351075028211259188e-03
-8.353327437434804326e-03
-8.349951453106624691e-03
-8.341379805661420718e-03
-8.330303597092157675e-03
-8.318431012651514647e-03
-8.305833368445836654e-03
-8.292767283098714109e-03
-8.280804851157909027e-03
-8.271457402250988883e-03
-8.264253507549446098e-03
-8.257145400854421294e-03
-8.248909267554477287e-03
-8.240367584543236909e-03
-8.232795669700192220e-03
-8.225715907828057283e-03
-8.217134889928489477e-03
-8.205938006090474773e-03
-8.193202334088448002e-03
-8.180677909505985196e-03
-8.168553716136667600e-03
-8.155534930346814218e-03
-8.140983936987533642e-03
-8.125988540211641700e-03
-8.111742463096496825e-03
-8.097444631452887023e-03
-8.080716915954496218e-03
-8.060157170260146345e-03
-8.036730046103605918e-03
-8.012271557972117791e-03
-7.987283645095483511e-03
-7.961066536723073253e-03
-7.933910743784753153e-03
-7.908157293701876048e-03
-7.886455907637639207e-03
-7.869403263603233500e-03
-7.855617753060123443e-03
-7.844013413933868459e-03
-7.835126159871801110e-03
-7.829808274954370637e-03
-7.827361418446183647e-03
-7.825980505383927158e-03
-7.825108580610994069e-03
-7.826519002215761092e-03
-7.832559141652725362e-03
-7.843818905381419807e-03
-7.859241102771538992e-03
-7.878311557454000316e-03
-7.902115550700082244e-03
-7.931665864871078470e-03
-7.965759899037652692e-03
-8.001377548675971466e-03
-8.036228624123403427e-03
-8.070174877493103624e-03
-8.103839497402868727e-03
-8.136558445109028093e-03
-8.166621702763349894e-03
-8.193443392634898459e-03
-8.218515334368150377e-03
-8.243623436091945811e-03
-8.268599352022690252e-03
-8.291578867895759569e-03
-8.311350820341434006e-03
-8.328571847551426502e-03
-8.344266628407195560e-03
-8.357841308113268808e-03
-8.367521669653285241e-03
-8.372731222383919883e-03
-8.375157478671374500e-03
-8.376974447004217200e-03
-8.378554695311473191e-03
-8.378696113213447011e-03
-8.376946340609066691e-03
-8.374760312344129917e-03
-8.373877994037727188e-03
-8.374164269859169646e-03
-8.373892323298787882e-03
-8.372077292161883566e-03
-8.369663621831049602e-03
-8.368008719697584211e-03
-8.366885980230923461e-03
-8.364881692271770516e-03
-8.361669710569412731e-03
-8.358942278944405183e-03
-8.358558989863920305e-03
-8.360319807633097289e-03
-8.362347990362393665e-03
-8.363545062258075438e-03
-8.364787810213788685e-03
-8.367315844013881523e-03
-8.370646199253182346e-03
-8.372985967087203177e-03
-8.373630160696461308e-03
-8.374047382890263680e-03
-8.376117003870191258e-03
-8.379862296431894730e-03
-8.383685432876871596e-03
-8.386667452219911251e-03
-8.389713047773755469e-03
-8.394008857076652383e-03
-8.399038812511342225e-03
-8.403012534388250299e-03
-8.405174225992032011e-03
-8.406793641725333541e-03
-8.409427158337397581e-03
-8.412821477704593778e-03
-8.415356940928661947e-03
-8.416425703646476103e-03
-8.417438448033165432e-03
-8.420010298036169002e-03
-8.423762553532412184e-03
-8.426740707386717183e-03
-8.427900791387792426e-03
-8.428322901329570252e-03
-8.429590757042127597e-03
-8.431649291343721112e-03
-8.433085244556073196e-03
-8.433344622167878585e-03
-8.433699231125132284e-03
-8.435551007268773591e-03
-8.438425862655151571e-03
-8.440498279863555345e-03
-8.440993510329144328e-03
-8.441180302966711999e-03
-8.442575333235901452e-03
-8.444821708802707425e-03
-8.446165224438599919e-03
-8.445873148826450738e-03
-8.445254891343968381e-03
-8.445872468849598136e-03
-8.447417835480178563e-03
-8.448202744737825370e-03
-8.447592506110527047e-03
-8.447012957514751785e-03
-8.448117053838705842e-03
-8.450615980592129928e-03
-8.452745835664477944e-03
-8.453714941760614998e-03
-8.454770185382206454e-03
-8.457457777922075537e-03
-8.461529593510061162e-03
-8.465387365355143273e-03
-8.468369384514494794e-03
-8.471576514531054675e-03
-8.475968945845036365e-03
-8.480352366488082966e-03
-8.482195279665679169e-03
-8.480438252647557254e-03
-8.476715299183139318e-03
-8.473475790415964728e-03
-8.471560228698172754e-03
-8.470316878377341652e-03
-8.469711193990444795e-03
-8.471157307280203011e-03
-8.475724568207897852e-03
-8.482189852770197561e-03
-8.487755313235418111e-03
-8.490623567791956774e-03
-8.491068349363261464e-03
-8.489745821172197879e-03
-8.485873153882057818e-03
-8.478158070071694502e-03
-8.467557814263901653e-03
-8.458241725018621551e-03
-8.455209096107382458e-03
-8.461041961761131547e-03
-8.474853042543022130e-03
-8.493100442159770558e-03
-8.509582167622136567e-03
-8.514074195972635636e-03
-8.492725022155039535e-03
-8.433005733484924202e-03
-8.331393146397889776e-03
-8.198523766752714367e-03
-8.058446383075781524e-03
-7.943287487138003811e-03
-7.886552213208027420e-03
-7.916250905202731891e-03
-8.047362059227959954e-03
-8.275023503281060330e-03
-8.572576860375578228e-03
-8.897298598117603721e-03
-9.201480737153993825e-03
-9.443086962502655543e-03
-9.592282881203522196e-03
-9.634631165937216496e-03
-9.572954006588660011e-03
-9.427130045203756248e-03
-9.229351250283701971e-03
-9.015076517604237588e-03
-8.814072313136333756e-03
-8.646017635669651230e-03
-8.520756211988007867e-03
-8.439809224327118886e-03
-8.397162772565084504e-03
-8.380865715064394345e-03
-8.377221598191632312e-03
-8.375894071323100251e-03
-8.372129423877324589e-03
-8.364913857861609736e-03
-8.354080319250327402e-03
-8.339718555048829252e-03
-8.323444914384635004e-03
-8.308418434517786041e-03
-8.297012887471295547e-03
-8.288773710114175075e-03
-8.281363846386629105e-03
-8.273395097955233563e-03
-8.265569844574155792e-03
-8.258871691969479206e-03
-8.252518883448998338e-03
-8.244607093128759195e-03
-8.234564706491779781e-03
-8.223990933154142965e-03
-8.214660427194951653e-03
-8.206373936071657132e-03
-8.197515260006340079e-03
-8.187407445674903944e-03
-8.177089909009747914e-03
-8.167399244525780366e-03
-8.157079205711702252e-03
-8.143700998955115053e-03
-8.126321605986506352e-03
-8.106367742246838384e-03
-8.085608916777895991e-03
-8.064028999130685299e-03
-8.040492038652001516e-03
-8.015207567315434101e-03
-7.990498811887536759e-03
-7.968712355280037352e-03
-7.950053248618731833e-03
-7.933239527194180588e-03
-7.917997159793677825e-03
-7.905910819895898070e-03
-7.898459717743380390e-03
-7.894988926450848682e-03
-7.893471751269162326e-03
-7.893076522646242862e-03
-7.895088675867498879e-03
-7.901049745514561809e-03
-7.910822912442681820e-03
-7.923321276031332003e-03
-7.938811544737474357e-03
-7.959383965634277830e-03
-7.986648209935973824e-03
-8.019596116863059523e-03
-8.055474614837321648e-03
-8.092512104670053497e-03
-8.130911858253115493e-03
-8.170990153767404562e-03
-8.211278606464554597e-03
-8.249390368173259783e-03
-8.284520529517282530e-03
-8.318080884898779517e-03
-8.351473420124736965e-03
-8.383946298243169504e-03
-8.413399341068069845e-03
-8.438989585190960832e-03
-8.461952273868169477e-03
-8.483551584351396030e-03
-8.503056420316018257e-03
-8.518602391392373491e-03
-8.529802720112597547e-03
-8.538534144995703346e-03
-8.546808576868967014e-03
-8.554609334992798603e-03
-8.560559307934650572e-03
-8.564354574595341510e-03
-8.567502064532396197e-03
-8.571332000572562046e-03
-8.575101681021475228e-03
-8.576912986519018289e-03
-8.576261143614007793e-03
-8.574739626612020577e-03
-8.573942811923609270e-03
-8.573468980126043582e-03
-8.571787865713538165e-03
-8.568770828050709457e-03
-8.566357199873963005e-03
-8.566369948936320908e-03
-8.568414014740979162e-03
-8.570694846991633309e-03
-8.572611821946107477e-03
-8.575586695857076447e-03
-8.581052654990440828e-03
-8.588429590764825802e-03
-8.595877563186126238e-03
-8.602745303897482015e-03
-8.610298704141891232e-03
-8.619736107711406872e-03
-8.630286671025383730e-03
-8.640077608359520225e-03
-8.648598942596924521e-03
-8.657346062395819206e-03
-8.667715305407438370e-03
-8.679030230406094282e-03
-8.689424686079007254e-03
-8.698393699837788859e-03
-8.707533929644208776e-03
-8.718481056265128121e-03
-8.730879200126667392e-03
-8.743120263669926229e-03
-8.754733227237822962e-03
-8.767033081053187196e-03
-8.781086520068938014e-03
-8.795811748116754911e-03
-8.808889629425199763e-03
-8.819315296668964882e-03
-8.828182719775711645e-03
-8.836749884892476647e-03
-8.844566007364787485e-03
-8.850285090253283415e-03
-8.853979029077960194e-03
-8.857609779618991555e-03
-8.862839730110377498e-03
-8.869078909841650663e-03
-8.874423587367050170e-03
-8.878230356724818931e-03
-8.881859757098367267e-03
-8.886652311364087384e-03
-8.891986883796854438e-03
-8.896114596995531240e-03
-8.898603032016939168e-03
-8.901001698050955979e-03
-8.904808097645671230e-03
-8.909540865612032220e-03
-8.913554416903925193e-03
-8.916414692151253957e-03
-8.919498962224351943e-03
-8.923972945732473738e-03
-8.928972461142005088e-03
-8.932568802309217432e-03
-8.934257217081359101e-03
-8.935586220800730700e-03
-8.938083884305567453e-03
-8.941337984368250696e-03
-8.943842138999388847e-03
-8.945368173726006220e-03
-8.947488261780565943e-03
-8.951410485175058038e-03
-8.956022363790637486e-03
-8.958826710856225908e-03
-8.958583674025438759e-03
-8.956236541705438550e-03
-8.953118599802432909e-03
-8.949132316317566158e-03
-8.943476442830566170e-03
-8.936801022057176691e-03
-8.931576265924921071e-03
-8.929895969935675373e-03
-8.931517387620206694e-03
-8.934677387452861705e-03
-8.938454080131585586e-03
-8.943377143557040138e-03
-8.949503871793782275e-03
-8.954813932477857785e-03
-8.956503214307440924e-03
-8.953905435842911958e-03
-8.949569366063270942e-03
-8.947403183019037032e-03
-8.950410749279160208e-03
-8.960440912079417272e-03
-8.978871487994862649e-03
-9.005375675609489719e-03
-9.034646511346916542e-03
-9.054664928249089167e-03
-9.049684380193575087e-03
-9.006797304985868571e-03
-8.921967549284285856e-03
-8.802932168151306538e-03
-8.669521482387219924e-03
-8.552234337899250818e-03
-8.487702302954487632e-03
-8.509517563797848114e-03
-8.636664437715168424e-03
-8.865452342623276333e-03
-9.169522747324916623e-03
-9.507049844550677711e-03
-9.830423161021529035e-03
-1.009491801737279204e-02
-1.026617241960088578e-02
-1.032677705648997468e-02
-1.027986621981348374e-02
-1.014683179750124932e-02
-9.959574927716312309e-03
-9.751606223557618067e-03
-9.552088268163687682e-03
-9.383040219680685579e-03
-9.257427529590451717e-03
-9.177544129285753263e-03
-9.135821806480461105e-03
-9.119409058262046425e-03
-9.116100956822229331e-03
-9.117537605220346272e-03
-9.118568592997578631e-03
-9.115644222972583977e-03
-9.107043170961717435e-03
-9.094107971211452118e-03
-9.080631798230685142e-03
-9.069925641821401097e-03
-9.062492440473378374e-03
-9.056800405844448593e-03
-9.051828787067043094e-03
-9.048000791933677109e-03
-9.045577411802417644e-03
-9.043141904534413716e-03
-9.038586957878205069e-03
-9.031407372012014920e-03
-9.023163494244375304e-03
-9.015425336344810164e-03
-9.007942824641061719e-03
-8.999437711497196984e-03
-8.989752576321608651e-03
-8.980202318660254063e-03
-8.971496879497596957e-03
-8.962064041483138593e-03
-8.949191267485754470e-03
-8.931636567620906617e-03
-8.910378217260100583e-03
-8.886691272070921729e-03
-8.860306764221635711e-03
-8.830166792752124766e-03
-8.796626921897351958e-03
-8.761943504571181179e-03
-8.728269548534572236e-03
-8.695839660179257094e-03
-8.663767813103262841e-03
-8.632279283532787173e-03
-8.603242374391683114e-03
-8.578254551150009746e-03
-8.556946964658751487e-03
-8.537872881666682540e-03
-8.520760482474671813e-03
-8.507017360468278888e-03
-8.497805860416858190e-03
-8.492403279294504989e-03
-8.489208830851149856e-03
-8.488116221821597959e-03
-8.491042540747438874e-03
-8.499850386241051062e-03
-8.514377155824988386e-03
-8.533057125392679021e-03
-8.555057978471605415e-03
-8.580876169211822807e-03
-8.610619495955243799e-03
-8.642520827910180406e-03
-8.673947904114347185e-03
-8.703689148386990759e-03
-8.732455988842438566e-03
-8.760929849888883861e-03
-8.788023031005958927e-03
-8.811709480777456943e-03
-8.831244332166714520e-03
-8.847707705544405679e-03
-8.862164442723030611e-03
-8.874052207077536003e-03
-8.882092888182566842e-03
-8.886498300347087098e-03
-8.889383531785297055e-03
-8.892695454040365141e-03
-8.896334535532282248e-03
-8.898875296543458727e-03
-8.899772763360158309e-03
-8.900020073960089595e-03
-8.900488973636771703e-03
-8.900442143021061736e-03
-8.898431600032228814e-03
-8.894401691761016221e-03
-8.890046577020879401e-03
-8.886822134454490027e-03
-8.884253746772832749e-03
-8.880822678469320677e-03
-8.876215376297583171e-03
-8.871881819542105918e-03
-8.869194309867373463e-03
-8.867785382924589163e-03
-8.866340585486002027e-03
-8.864670608087378903e-03
-8.864090304095068387e-03
-8.865496047478656910e-03
-8.867785607879709667e-03
-8.868881353831363848e-03
-8.868089929589262344e-03
-8.866701222161158663e-03
-8.866109770144391458e-03
-8.866059689931066190e-03
-8.865334681717983167e-03
-8.863783047928175396e-03
-8.862755112012891956e-03
-8.863316329247600961e-03
-8.864762637931950309e-03
-8.865581532842295442e-03
-8.865592601473629847e-03
-8.866308546326216733e-03
-8.868966175328302920e-03
-8.872883953799275483e-03
-8.876371565815732029e-03
-8.878920767946192963e-03
-8.881659314664135108e-03
-8.885464566074688028e-03
-8.889381407042021635e-03
-8.891585868631661851e-03
-8.891633769533864931e-03
-8.890959539340355725e-03
-8.890981524168875896e-03
-8.891421942097582284e-03
-8.891089918379765922e-03
-8.889931795889614852e-03
-8.889404037210526383e-03
-8.890586216675364084e-03
-8.892637719486444492e-03
-8.893779489434903290e-03
-8.893519121538101535e-03
-8.893122520896407437e-03
-8.893746855502128457e-03
-8.894857137368162789e-03
-8.895120647890025767e-03
-8.894509473032167352e-03
-8.894641555135446298e-03
-8.896812662479276768e-03
-8.900368015205332300e-03
-8.903608843598132677e-03
-8.905947940098747975e-03
-8.908333928177344929e-03
-8.911400676677812618e-03
-8.913989427611190147e-03
-8.914213372900376200e-03
-8.911739754799842539e-03
-8.908272603446502902e-03
-8.905650909347995539e-03
-8.904163211441188872e-03
-8.903240300905019416e-03
-8.903284448799847137e-03
-8.905784232844349627e-03
-8.911296809998824064e-03
-8.917978369960862309e-03
-8.922780614914990402e-03
-8.923926599618627747e-03
-8.921637926192452217e-03
-8.916567016084137737e-03
-8.908560551714142517e-03
-8.897835827138100839e-03
-8.887095648749019153e-03
-8.881407294724918966e-03
-8.885184592748481339e-03
-8.898994332381185424e-03
-8.918757980998455459e-03
-8.936790274340905907e-03
-8.942584611318650165e-03
-8.923406045944159981e-03
-8.867181462090928043e-03
-8.768737810974747832e-03
-8.636219182633780161e-03
-8.492727517872398005e-03
-8.371404570966450159e-03
-8.306793439978959331e-03
-8.326457916483417585e-03
-8.444432071445136245e-03
-8.656412323668816189e-03
-8.937959171102688102e-03
-9.248365638874458255e-03
-9.540581406463778669e-03
-9.773100671043082055e-03
-9.918216247735303290e-03
-9.964491714975442366e-03
-9.915666846342477067e-03
-9.788674414603083448e-03
-9.610568913041803510e-03
-9.412766708924186210e-03
-9.223422345640375913e-03
-9.061680851093399658e-03
-8.936602105559894246e-03
-8.849524840033835132e-03
-8.796472105685420109e-03
-8.769284030761343579e-03
-8.757176037730851625e-03
-8.750061388522597725e-03
-8.741917096761031569e-03
-8.731306703502469263e-03
-8.718916235451391189e-03
-8.705137447311337220e-03
-8.690117549916720474e-03
-8.675143078472703773e-03
-8.662540261928391994e-03
-8.653635014181751059e-03
-8.647326966351722918e-03
-8.641252997208597256e-03
-8.634124947447514506e-03
-8.626314457260591748e-03
-8.618210431939894722e-03
-8.608891806252273737e-03
-8.597084404163089777e-03
-8.583048756039815194e-03
-8.568629219704082534e-03
-8.555182951084896320e-03
-8.542066375814763926e-03
-8.527671439762624442e-03
-8.511578899693473046e-03
-8.494924791630045421e-03
-8.478574783123219924e-03
-8.461725080887922898e-03
-8.442936385365406096e-03
-8.422216585713097545e-03
-8.401288130430251480e-03
-8.381648001639069312e-03
-8.363030922673521383e-03
-8.344284132141761498e-03
-8.325323396891640138e-03
-8.307407819923015926e-03
-8.291409041617269979e-03
-8.276626658047582172e-03
-8.261973526721198488e-03
-8.248006031410546474e-03
-8.236971105828506598e-03
-8.230655385229672730e-03
-8.228800149553103932e-03
-8.230093032429702110e-03
-8.234279120611800659e-03
-8.242490874615992363e-03
-8.255425246456145685e-03
-8.271986463712119320e-03
-8.290347286481382014e-03
-8.310004797809196486e-03
-8.332002076369048049e-03
-8.357000857469737420e-03
-8.383847645909572183e-03
-8.410592160305617460e-03
-8.436545556534219906e-03
-8.462567231297124515e-03
-8.489257109044695201e-03
-8.515635801444949166e-03
-8.540185822349440764e-03
-8.562799669764645932e-03
-8.584873552835143792e-03
-8.607334700915009532e-03
-8.629270469162486287e-03
-8.649036186200057680e-03
-8.666326352714763884e-03
-8.682374395742868678e-03
-8.698024408336401531e-03
-8.712348691797586198e-03
-8.723737209489068958e-03
-8.731992685431401793e-03
-8.738593259971859373e-03
-8.744803433997765454e-03
-8.750238170173330748e-03
-8.753796738647243517e-03
-8.755570143676087366e-03
-8.756992776020447455e-03
-8.758990987297271200e-03
-8.760710746603030813e-03
-8.760637896846310696e-03
-8.758617050654548056e-03
-8.756020952854907599e-03
-8.753871951900539169e-03
-8.751547586039142707e-03
-8.747888774372937840e-03
-8.743181436815650534e-03
-8.739224897887800866e-03
-8.737288276207951648e-03
-8.736644673321854876e-03
-8.735599246505073440e-03
-8.733563646942735237e-03
-8.731393808567961337e-03
-8.729695988399300763e-03
-8.727634413249092671e-03
-8.724020575094484919e-03
-8.719199282816952543e-03
-8.715039554007097955e-03
-8.712905261501164428e-03
-8.712279805481419268e-03
-8.711854635909519265e-03
-8.711531636042595117e-03
-8.712569297689147507e-03
-8.715707365822215891e-03
-8.719929084699691232e-03
-8.723652061467752905e-03
-8.726771328211334333e-03
-8.730765444594510219e-03
-8.736701795101992421e-03
-8.743828721185295874e-03
-8.750604445246664559e-03
-8.756664437184395397e-03
-8.762994619596000886e-03
-8.770133218026276989e-03
-8.776996158706716622e-03
-8.782052129510477256e-03
-8.785272376163406199e-03
-8.788146841146886670e-03
-8.791696195907751712e-03
-8.795181374342143227e-03
-8.797267124268211280e-03
-8.798017125708244152e-03
-8.798951297760610607e-03
-8.801075210989288758e-03
-8.803599384165994648e-03
-8.805122740690144931e-03
-8.805666593168769499e-03
-8.806794064395764496e-03
-8.809707193345648474e-03
-8.813978800551947740e-03
-8.818619539784114739e-03
-8.823856792027139767e-03
-8.830963394018767967e-03
-8.840206807504115416e-03
-8.849724441407131117e-03
-8.857037568535982078e-03
-8.861419608926824482e-03
-8.864197806950307665e-03
-8.866842468636079375e-03
-8.869575263716622526e-03
-8.872285373362587962e-03
-8.876157421157146454e-03
-8.883341897390654301e-03
-8.894754173761980007e-03
-8.908830425867150099e-03
-8.922934279765626017e-03
-8.935604886410559305e-03
-8.946789518960770321e-03
-8.956070962847699143e-03
-8.961729960002367407e-03
-8.962358164419354997e-03
-8.959182593047086696e-03
-8.956136091330857765e-03
-8.957506726213778844e-03
-8.965841217916195940e-03
-8.981822754373456480e-03
-9.004620361660347141e-03
-9.030466659059823223e-03
-9.050270887625893809e-03
-9.049818169947612678e-03
-9.014549987561364455e-03
-8.936624597045318349e-03
-8.819985370702389596e-03
-8.681405574570585232e-03
-8.548469951675069858e-03
-8.455515157321295133e-03
-8.436849008006922987e-03
-8.517066568427128503e-03
-8.701624556203414740e-03
-8.972908101183138183e-03
-9.294368371763304937e-03
-9.620079938595484451e-03
-9.904666584182606273e-03
-1.011086140426036527e-02
-1.021517634743822345e-02
-1.021208541216050980e-02
-1.011483028839578815e-02
-9.950856725424440247e-03
-9.753265192358053642e-03
-9.552663435908716541e-03
-9.372664469666842912e-03
-9.228452701967046826e-03
-9.126117570172637833e-03
-9.062458160413098401e-03
-9.027098044882388497e-03
-9.007400168615361732e-03
-8.993415338340729828e-03
-8.979564953093892646e-03
-8.963087666374353057e-03
-8.942352054006175166e-03
-8.917121674720446256e-03
-8.889413307888628310e-03
-8.862533846764318948e-03
-8.838568959232986216e-03
-8.817123134944411175e-03
-8.796793265529423769e-03
-8.777383498891577068e-03
-8.759990301238456539e-03
-8.745042003756472310e-03
-8.731145315029364626e-03
-8.716413132023230134e-03
-8.700490649623355069e-03
-8.684535253486360545e-03
-8.669236318950441014e-03
-8.653640375982473223e-03
-8.636370574571370501e-03
-8.617458512800301937e-03
-8.598147653496221107e-03
-8.578884842226084176e-03
-8.558307486595815097e-03
-8.534721135509898762e-03
-8.508127063648361632e-03
-8.480060162710250857e-03
-8.451475208535407652e-03
-8.421592027108256925e-03
-8.389293008798341320e-03
-8.355162761165999333e-03
-8.321381067814791199e-03
-8.289618122289401161e-03
-8.259779374134643484e-03
-8.231210278755181353e-03
-8.204547285376326271e-03
-8.181539063955082375e-03
-8.163037111302220636e-03
-8.147957918841132463e-03
-8.134722693195003615e-03
-8.123275431527028634e-03
-8.114994078251391851e-03
-8.110739609826392998e-03
-8.109860665497372473e-03
-8.111595901226753905e-03
-8.116890818698469998e-03
-8.127945757193968251e-03
-8.145863111377136395e-03
-8.169391539844016517e-03
-8.196347263509670342e-03
-8.225750821806909405e-03
-8.257880268665990925e-03
-8.292406550468601686e-03
-8.327424552736887448e-03
-8.360882327329599226e-03
-8.392491359083337904e-03
-8.423436778590691343e-03
-8.454179579018139892e-03
-8.483257712437545714e-03
-8.508642473338922166e-03
-8.529752322848494286e-03
-8.547417786598206571e-03
-8.562005008503313641e-03
-8.572473796992276587e-03
-8.577803164076219788e-03
-8.578844814448300868e-03
-8.577974127824333078e-03
-8.576888831782402897e-03
-8.575437596593064871e-03
-8.572927596222341615e-03
-8.569939130371460531e-03
-8.568009047086280749e-03
-8.567565405141759627e-03
-8.567020939781355010e-03
-8.564443059549640969e-03
-8.559728536268141827e-03
-8.554505824427965574e-03
-8.550032579141622624e-03
-8.545973761679434913e-03
-8.541580186927983515e-03
-8.537391577797840900e-03
-8.534891014406725124e-03
-8.534484079503322496e-03
-8.534632155039856283e-03
-8.533475239372133661e-03
-8.530867161398288101e-03
-8.528142387477262790e-03
-8.526011181854243476e-03
-8.523519790172932528e-03
-8.519515498148061070e-03
-8.514580684260636759e-03
-8.510730410744017996e-03
-8.509220981447592966e-03
-8.509385404872048600e-03
-8.509977121161086538e-03
-8.511073587542309152e-03
-8.513896459714719381e-03
-8.518860128493298961e-03
-8.524637265142225723e-03
-8.529600422423287351e-03
-8.533672695931845964e-03
-8.538034766494145833e-03
-8.543111788771982559e-03
-8.547666748555714580e-03
-8.550302830999794226e-03
-8.551318783172964441e-03
-8.552329716617517938e-03
-8.554130587139281705e-03
-8.555720435267363116e-03
-8.555832142312669655e-03
-8.554869051978011840e-03
-8.554577213763563115e-03
-8.555876221038035551e-03
-8.557781839746290281e-03
-8.558844268237353684e-03
-8.559095483418073871e-03
-8.559859247080980199e-03
-8.561763215271056202e-03
-8.563755632903418194e-03
-8.564489033713765936e-03
-8.564126543538176303e-03
-8.564052838043314381e-03
-8.564912880262459324e-03
-8.565749608686001881e-03
-8.565485821327354504e-03
-8.564706785397339234e-03
-8.565228451689058803e-03
-8.567967381645488767e-03
-8.571980479846995349e-03
-8.575946824754701256e-03
-8.580002425090613519e-03
-8.585348884225980221e-03
-8.592130776007712856e-03
-8.598494932416536271e-03
-8.602185624443875120e-03
-8.602636620298212411e-03
-8.600935913364533836e-03
-8.598005645180284776e-03
-8.593714437273552997e-03
-8.588151576481309335e-03
-8.583069773476104808e-03
-8.581096572644443879e-03
-8.583359400198076541e-03
-8.588471903128619064e-03
-8.594155914253054362e-03
-8.599349275554049252e-03
-8.604133613239431377e-03
-8.607893685623800931e-03
-8.608558029306609752e-03
-8.604250488150926718e-03
-8.595349655900525257e-03
-8.584407166312348070e-03
-8.574293948220547412e-03
-8.567183578642393466e-03
-8.565383727321563417e-03
-8.571854628493476291e-03
-8.588096229947420404e-03
-8.610474328228605659e-03
-8.628626743989840572e-03
-8.627973592417599938e-03
-8.594675446269938943e-03
-8.520209771860165135e-03
-8.404817424267088666e-03
-8.260591381207245745e-03
-8.113297428690808763e-03
-7.999714517438928293e-03
-7.958668253061285808e-03
-8.018725347102064957e-03
-8.188617556945741727e-03
-8.454387383968321387e-03
-8.782579436902157241e-03
-9.126672049000526463e-03
-9.435432456962987088e-03
-9.663200036361362100e-03
-9.780372351814978910e-03
-9.779861247715475672e-03
-9.676252020395480213e-03
-9.498856229049675026e-03
-9.283130577132064909e-03
-9.063771844761026736e-03
-8.869502586087381346e-03
-8.718634341975594823e-03
-8.616511347594814352e-03
-8.557059995481374956e-03
-8.528273752643270034e-03
-8.518078467318545080e-03
-8.517059668213379162e-03
-8.518179958435376925e-03
-8.516357574941714470e-03
-8.509392565761624352e-03
-8.498576735715681826e-03
-8.487010520871359626e-03
-8.476637689679324475e-03
-8.467028571836406059e-03
-8.456983736891469233e-03
-8.446588169954511935e-03
-8.437032253868723478e-03
-8.428711124435059668e-03
-8.420438772008787334e-03
-8.410945669960652460e-03
-8.400565534732722106e-03
-8.390717622260221442e-03
-8.381861093597902865e-03
-8.372746190020818879e-03
-8.362002781174790109e-03
-8.349858969656084526e-03
-8.337593300982191341e-03
-8.325476066505441836e-03
-8.312080734917298361e-03
-8.295979323637483333e-03
-8.277535532123696596e-03
-8.258341588831723604e-03
-8.239065067271423085e-03
-8.218653006927003485e-03
-8.195974236231340013e-03
-8.171633622036636804e-03
-8.147468823265148485e-03
-8.124435924388802646e-03
-8.101793587894142584e-03
-8.078681432629459050e-03
-8.055883091108453908e-03
-8.035334561250351629e-03
-8.018076491016908405e-03
-8.003491045750371971e-03
-7.990849317542320085e-03
-7.980960032594592440e-03
-7.975557475880773461e-03
-7.975221002735287043e-03
-7.978712677799971315e-03
-7.984731960791347644e-03
-7.993785509585016325e-03
-8.007684730354378694e-03
-8.027369675397157817e-03
-8.051954046032205881e-03
-8.080120593661487688e-03
-8.111755298879561732e-03
-8.147470616544182434e-03
-8.186713136146236622e-03
-8.227205117302417367e-03
-8.266654578692104668e-03
-8.304503858764194710e-03
-8.341388154306553573e-03
-8.377110967246527776e-03
-8.409977886507156650e-03
-8.438434786198377099e-03
-8.462743774028724797e-03
-8.484349601788742506e-03
-8.503768476101212365e-03
-8.519884860346880681e-03
-8.531621211377012765e-03
-8.539680332160801482e-03
-8.545944178979272138e-03
-8.551313206775591064e-03
-8.554894205303822941e-03
-8.555588193792495327e-03
-8.553867547827694387e-03
-8.551347522623441860e-03
-8.548855527368894383e-03
-8.545754799976176472e-03
-8.541452502306520755e-03
-8.536899880167285112e-03
-8.533860327531004805e-03
-8.532847199790520587e-03
-8.532557080877103267e-03
-8.531625385116826596e-03
-8.530341010437991062e-03
-8.529996263160427236e-03
-8.530793101412083648e-03
-8.531215746596510288e-03
-8.529769814957463905e-03
-8.526745437957512774e-03
-8.523648667668571460e-03
-8.521164508197155707e-03
-8.518509486577556522e-03
-8.515047787187283654e-03
-8.511842508998213735e-03
-8.510848079404487870e-03
-8.512698726370468080e-03
-8.516028095772398832e-03
-8.519217739568880898e-03
-8.522208219328060788e-03
-8.525995739469169679e-03
-8.530665827911952312e-03
-8.534811428605848516e-03
-8.537206359141952597e-03
-8.538423560487810524e-03
-8.540123879304655288e-03
-8.542945992616016865e-03
-8.545856363450215348e-03
-8.547794319636399865e-03
-8.549275228949349340e-03
-8.551690333927544282e-03
-8.555261418968781312e-03
-8.558512268569091336e-03
-8.560062612369056731e-03
-8.560363016613769041e-03
-8.561064047025996118e-03
-8.562938901529074456e-03
-8.565201147312783217e-03
-8.567044602147423291e-03
-8.569107250621307847e-03
-8.572684060203599604e-03
-8.577717075877538955e-03
-8.582402699538754440e-03
-8.585110854184518220e-03
-8.586137868029175210e-03
-8.587003482154556902e-03
-8.588320975119743614e-03
-8.589164116492870732e-03
-8.588729828868747751e-03
-8.587895706583359434e-03
-8.588413173988878463e-03
-8.590756464729253084e-03
-8.593534458077891486e-03
-8.595264780024767029e-03
-8.596113042246427555e-03
-8.597304293149043292e-03
-8.599140128742610231e-03
-8.600433939026416730e-03
-8.600140934314996072e-03
-8.598872847060030217e-03
-8.598149137458859642e-03
-8.598413666404750022e-03
-8.598599333193299513e-03
-8.597881747587785006e-03
-8.597180585146505308e-03
-8.598246413479339670e-03
-8.601479584854139493e-03
-8.605415047766807810e-03
-8.608579042242143695e-03
-8.611212588972070800e-03
-8.614561894364353156e-03
-8.618768022051272876e-03
-8.622276206814700680e-03
-8.623571301966939315e-03
-8.622875577913302614e-03
-8.621567957705012636e-03
-8.620266072770416121e-03
-8.618314762644317673e-03
-8.615366333081315303e-03
-8.612716192209528970e-03
-8.612315222707870102e-03
-8.614601121454621910e-03
-8.618005456060184172e-03
-8.620776683884095321e-03
-8.622636676831482716e-03
-8.624075722422427578e-03
-8.624414527062048905e-03
-8.621550955040826331e-03
-8.614089628673706964e-03
-8.603340574793614734e-03
-8.592809167248392083e-03
-8.585998681808695507e-03
-8.585164664923780262e-03
-8.591685304333639833e-03
-8.605901669711936083e-03
-8.624828495427158681e-03
-8.639573579744508694e-03
-8.636011610625660140e-03
-8.599710531054986437e-03
-8.522295674320806702e-03
-8.405807219593025570e-03
-8.264190929645606407e-03
-8.122844056306612742e-03
-8.015947014520618044e-03
-7.979854925143220479e-03
-8.042607084260848527e-03
-8.213553185410593302e-03
-8.478502117595319507e-03
-8.802535471944912190e-03
-9.138069943601064005e-03
-9.434484990775548335e-03
-9.647654049167283391e-03
-9.748987118368244650e-03
-9.732035740827812281e-03
-9.613198126876994903e-03
-9.425155061859121289e-03
-9.206214744331397623e-03
-8.990945494614719161e-03
-8.805028667292812486e-03
-8.663353424467152772e-03
-8.569482326166409647e-03
-8.516732427434406394e-03
-8.492145889426433100e-03
-8.482396250132384977e-03
-8.478145988107413031e-03
-8.474449138283842928e-03
-8.468646139936317555e-03
-8.459107340274499981e-03
-8.445895808428617590e-03
-8.431231096004966966e-03
-8.417881768012771757e-03
-8.406776146185743551e-03
-8.396627227721761844e-03
-8.385980294484073755e-03
-8.375020938061540285e-03
-8.364934376967163299e-03
-8.355958305376519346e-03
-8.346933584521728719e-03
-8.336918207037082376e-03
-8.326475126585622041e-03
-8.316705112943039227e-03
-8.307315534942358651e-03
-8.296474464765510662e-03
-8.282805689769587656e-03
-8.266908243617823726e-03
-8.250362247701276824e-03
-8.233565336256971900e-03
-8.215303206368889180e-03
-8.194553778826928550e-03
-8.171965562859661442e-03
-8.148942862761012970e-03
-8.125617180448050508e-03
-8.100553495772178439e-03
-8.072668375879913857e-03
-8.042809309654912545e-03
-8.012933679840881368e-03
-7.984124448674832092e-03
-7.956210390965981830e-03
-7.929425171004662182e-03
-7.905614460245386985e-03
-7.887071419628988514e-03
-7.874377495936250512e-03
-7.866081607384525082e-03
-7.860629514086303962e-03
-7.857976418517965966e-03
-7.858868828482079572e-03
-7.863070343241176582e-03
-7.869256997911720092e-03
-7.876907921555535708e-03
-7.887604931101009978e-03
-7.903800869513935567e-03
-7.926481644906280266e-03
-7.954621304799619833e-03
-7.986890601723908509e-03
-8.023086609133207869e-03
-8.063303653694236725e-03
-8.106145324399726196e-03
-8.148702408349074028e-03
-8.188605429484597034e-03
-8.225557789440505682e-03
-8.260404998843340341e-03
-8.293116730599587455e-03
-8.322466421281024540e-03
-8.347750340806267891e-03
-8.369994395154319380e-03
-8.390783200217204543e-03
-8.410180877485304643e-03
-8.426571377721406991e-03
-8.438703693401362893e-03
-8.447248066828491608e-03
-8.453845705557469850e-03
-8.459038702546783223e-03
-8.461928591770731881e-03
-8.461961232395507834e-03
-8.460295078313652059e-03
-8.458830442288798115e-03
-8.458245331602158579e-03
-8.457734807094611368e-03
-8.456727499036385820e-03
-8.456067537668168071e-03
-8.456914384245417873e-03
-8.458873989882364011e-03
-8.460065423470690057e-03
-8.459226559305151050e-03
-8.457127031571582201e-03
-8.455424095353044484e-03
-8.454525258312840796e-03
-8.453327505416313031e-03
-8.451100843007014474e-03
-8.448849191729362884e-03
-8.448234692829983267e-03
-8.449530365633447365e-03
-8.451403304940707795e-03
-8.452795325021807138e-03
-8.454283614127405116e-03
-8.457061275040516496e-03
-8.461009449192246137e-03
-8.464606896342026163e-03
-8.466869634686796306e-03
-8.468672988621223086e-03
-8.471622685129021058e-03
-8.475994054174759013e-03
-8.480518795354108352e-03
-8.484231561567589369e-03
-8.487754581274957119e-03
-8.492221098053226447e-03
-8.497367336072925159e-03
-8.501528011914285046e-03
-8.503659253329522508e-03
-8.504684943364364258e-03
-8.506338540991977351e-03
-8.509065774215470931e-03
-8.511797368172223377e-03
-8.513791851020927060e-03
-8.515900684541952495e-03
-8.519453115799073203e-03
-8.524306914426519471e-03
-8.528806654073779400e-03
-8.531766034623642150e-03
-8.533784837394418551e-03
-8.536126775318961593e-03
-8.538762628256618692e-03
-8.540336916740999887e-03
-8.540134932223778647e-03
-8.539320717707752154e-03
-8.539680717077231809e-03
-8.541525205298765300e-03
-8.543557778387158783e-03
-8.544823684035416853e-03
-8.546013340088807683e-03
-8.548332514597462364e-03
-8.551551498620437591e-03
-8.554003947392637558e-03
-8.554618356614569416e-03
-8.554248128244620192e-03
-8.554511825730715460e-03
-8.555749723954397812e-03
-8.556857750295972231e-03
-8.557107049599724929e-03
-8.557305391751979240e-03
-8.558628631970526673e-03
-8.560771392944132099e-03
-8.562080849905862392e-03
-8.561598041403457177e-03
-8.560233980312985727e-03
-8.559433378583307037e-03
-8.559125148762166541e-03
-8.557780567893486651e-03
-8.554551744044285033e-03
-8.550619414684686517e-03
-8.547930309725492240e-03
-8.547015891680163555e-03
-8.546767467339767832e-03
-8.546323329492008097e-03
-8.546373677525975765e-03
-8.548106113255335425e-03
-8.551365421278744536e-03
-8.554708535953298512e-03
-8.557368317519251436e-03
-8.560423471769783993e-03
-8.565504588407714739e-03
-8.572735697150991180e-03
-8.580650373522112975e-03
-8.588093976918753994e-03
-8.595420354752827258e-03
-8.603359932951974015e-03
-8.611268698811121863e-03
-8.617399584028850867e-03
-8.621037159038910311e-03
-8.623668752277539873e-03
-8.627547941726316019e-03
-8.633459681433398869e-03
-8.640503894322556014e-03
-8.647913802842256345e-03
-8.656181723026177763e-03
-8.665843734518384814e-03
-8.675655562760181336e-03
-8.682881641474217427e-03
-8.685638804526819162e-03
-8.684513908180504366e-03
-8.681727361523783326e-03
-8.679396665542314648e-03
-8.679337499465346328e-03
-8.684099281336270931e-03
-8.696505999580621607e-03
-8.716510376487220102e-03
-8.737895967133453914e-03
-8.748391876215767804e-03
-8.733700622937365377e-03
-8.682685352865203085e-03
-8.591310070806195548e-03
-8.465476307184116242e-03
-8.323363225569915466e-03
-8.195453749607681596e-03
-8.119165852823262766e-03
-8.128057283078245904e-03
-8.240325033372498942e-03
-8.452401824523156360e-03
-8.739651736458962580e-03
-9.061918673958240314e-03
-9.371189694529971984e-03
-9.620686852359061625e-03
-9.774997279256640928e-03
-9.818409793662575061e-03
-9.757294048405425191e-03
-9.615243617239461679e-03
-9.424375970928268800e-03
-9.217566302538345024e-03
-9.023430969663541121e-03
-8.862768562407408873e-03
-8.745633393191894894e-03
-8.670674476540735434e-03
-8.628444941044749808e-03
-8.607196402392897766e-03
-8.597248348548081065e-03
-8.591780260819808709e-03
-8.585783739946494311e-03
-8.576046754091506616e-03
-8.562297709385957925e-03
-8.547115944350798175e-03
-8.533528344668851046e-03
-8.522483057265758943e-03
-8.512910832132559308e-03
-8.503923069137277538e-03
-8.496076085345107692e-03
-8.490116828524511827e-03
-8.485173424935654740e-03
-8.479105905987648420e-03
-8.470696370330006025e-03
-8.460755971024323807e-03
-8.450658637540020557e-03
-8.440301496174310719e-03
-8.428234846332580132e-03
-8.413698429574564125e-03
-8.397704752369549233e-03
-8.381682903370549914e-03
-8.365595844367985229e-03
-8.348149592778845995e-03
-8.328767390849523694e-03
-8.308518365941940792e-03
-8.288634488726288191e-03
-8.268631044361008167e-03
-8.246667540212583927e-03
-8.221755115751516740e-03
-8.194900508482675858e-03
-8.167747359833442064e-03
-8.140702132144184144e-03
-8.113182941020409197e-03
-8.085614061777561881e-03
-8.060288800238717827e-03
-8.039712461060621179e-03
-8.024478555202434193e-03
-8.013392013784200602e-03
-8.005533638414448483e-03
-8.001417513451415317e-03
-8.001789162270846537e-03
-8.005954356400177621e-03
-8.012165652007309166e-03
-8.019664607952829705e-03
-8.029584454536661114e-03
-8.043418565324401970e-03
-8.061097700449364883e-03
-8.081264353085284430e-03
-8.103303374113173668e-03
-8.128254677859844332e-03
-8.157265421931183050e-03
-8.189639838834908078e-03
-8.223134251180538173e-03
-8.256109329208763739e-03
-8.288663456502750465e-03
-8.321332667238149142e-03
-8.353305225837917916e-03
-8.382712956394174422e-03
-8.408609838040330756e-03
-8.431858247364277040e-03
-8.453641422922134399e-03
-8.473617955401304205e-03
-8.490243679912853197e-03
-8.502797216339780598e-03
-8.512300746129830217e-03
-8.520076814627736486e-03
-8.525977581240021946e-03
-8.528789489278350636e-03
-8.528289689186589403e-03
-8.526099239364324026e-03
-8.524095215632691153e-03
-8.522501697540003224e-03
-8.520235995125580164e-03
-8.516988084153085184e-03
-8.514123292720903249e-03
-8.513123749613285551e-03
-8.513691623443942619e-03
-8.514131074030208482e-03
-8.513523847466978808e-03
-8.512784014287859760e-03
-8.513246395993427640e-03
-8.514817148790742793e-03
-8.516237003714557594e-03
-8.517001967630099049e-03
-8.518164689042241611e-03
-8.520832750472825262e-03
-8.524451672146268061e-03
-8.527326605665300902e-03
-8.528751643095251744e-03
-8.529854453770678926e-03
-8.531994802028443001e-03
-8.534916820057213138e-03
-8.537198954200379483e-03
-8.538375748147919442e-03
-8.539785081051610993e-03
-8.542927094519755377e-03
-8.547525812796516118e-03
-8.551882082044671637e-03
-8.554971989974305413e-03
-8.557411272277375136e-03
-8.560064531410983835e-03
-8.562385557441249892e-03
-8.562928315646305133e-03
-8.561387767993745151e-03
-8.559317130141705018e-03
-8.558430745888644803e-03
-8.558724984407526173e-03
-8.558926209085174208e-03
-8.558592548058383681e-03
-8.558932738140482763e-03
-8.561188424228172514e-03
-8.564805309383935125e-03
-8.567937814772139810e-03
-8.569651320329088953e-03
-8.570883889258298569e-03
-8.572956310151749401e-03
-8.575763654601342018e-03
-8.578130062841577211e-03
-8.579726702214844625e-03
-8.581753975881808646e-03
-8.585331816395879584e-03
-8.589790102641660721e-03
-8.593267172803209161e-03
-8.594878700004760994e-03
-8.595558433836846327e-03
-8.596494501028811852e-03
-8.597379185847194016e-03
-8.596906922524159139e-03
-8.594801526061316907e-03
-8.592500115722196893e-03
-8.591457846111292401e-03
-8.591337095236692770e-03
-8.590547902166812202e-03
-8.588415198071280149e-03
-8.586045327491475393e-03
-8.584773775161170031e-03
-8.584392720453516007e-03
-8.583609093207173607e-03
-8.582050997014117888e-03
-8.580984093690551678e-03
-8.581707510234008740e-03
-8.583846204450309991e-03
-8.585920860596034029e-03
-8.587418395845949209e-03
-8.589486160453496319e-03
-8.593254659319295163e-03
-8.598064350534197903e-03
-8.602011371834248840e-03
-8.604047685605015552e-03
-8.604774434924581522e-03
-8.604944888798203226e-03
-8.603924207346015998e-03
-8.600434929363076630e-03
-8.594705112398648775e-03
-8.589061579439196542e-03
-8.585971697323670562e-03
-8.585895924653693528e-03
-8.587511858067550102e-03
-8.589677053890666658e-03
-8.592301812690886914e-03
-8.595063258920860455e-03
-8.596084044710712926e-03
-8.592853203664955683e-03
-8.584576262143766776e-03
-8.573118239231557539e-03
-8.561549647237740729e-03
-8.552414019477753981e-03
-8.547837232421780576e-03
-8.550490531708757752e-03
-8.562637034725107885e-03
-8.582775999347772022e-03
-8.602916941645215310e-03
-8.609632170683679739e-03
-8.588566408647331854e-03
-8.529432045811840418e-03
-8.429601962700756027e-03
-8.296826770999209122e-03
-8.151345400653171175e-03
-8.025078806273939699e-03
-7.955110908903684566e-03
-7.972428674381819638e-03
-8.091283375521807555e-03
-8.304510918925030877e-03
-8.585750695690929843e-03
-8.895677988534470698e-03
-9.189548010555315810e-03
-9.425499802629178775e-03
-9.573166213558277973e-03
-9.619998511944123643e-03
-9.572118419947213408e-03
-9.449544412615007091e-03
-9.279295436317672868e-03
-9.089915875214281751e-03
-8.907741903430469593e-03
-8.753218916052412854e-03
-8.637248411446212318e-03
-8.560042665986868429e-03
-8.514176523924072565e-03
-8.489878238636549071e-03
-8.478681158995011666e-03
-8.473915667830022452e-03
-8.470119115888467137e-03
-8.463710863604130205e-03
-8.454285163442282897e-03
-8.444104276869209003e-03
-8.435442797838825849e-03
-8.428441863117638183e-03
-8.421738660827628523e-03
-8.414679514236802008e-03
-8.408040772341574681e-03
-8.402419047470266814e-03
-8.396727860210643699e-03
-8.389067112706023385e-03
-8.378895189476888092e-03
-8.367567915053339758e-03
-8.356499542712846756e-03
-8.345424962868304777e-03
-8.333059408327224762e-03
-8.319134626665303581e-03
-8.304926466396885323e-03
-8.291531570992251299e-03
-8.278303281333805955e-03
-8.263638418006206271e-03
-8.247029087918323134e-03
-8.229526124498788911e-03
-8.211977846349329674e-03
-8.193536121805504446e-03
-8.172596413080150668e-03
-8.148974260054906230e-03
-8.124365736976483024e-03
-8.100446033655575584e-03
-8.077172931648201812e-03
-8.053560302654730677e-03
-8.029786325633177235e-03
-8.007681219965263886e-03
-7.988892373173871186e-03
-7.973232407891365017e-03
-7.959461489929903211e-03
-7.947408619208826130e-03
-7.938522151902140112e-03
-7.934143069528247147e-03
-7.933944981660539381e-03
-7.936721359357143749e-03
-7.942404404062949896e-03
-7.952454887983222837e-03
-7.967999361785414042e-03
-7.988220255621942753e-03
-8.011194406404692145e-03
-8.036049149404088029e-03
-8.063542803377994270e-03
-8.094373970810860713e-03
-8.127615322161947653e-03
-8.161410399875121749e-03
-8.194890651408260479e-03
-8.228598142107823935e-03
-8.262827020687354973e-03
-8.296239357983332605e-03
-8.326772453302428226e-03
-8.353696759968335522e-03
-8.378075611786928861e-03
-8.401046466345403821e-03
-8.422295194557134074e-03
-8.440763137140315162e-03
-8.456493596477668295e-03
-8.470943042876238893e-03
-8.485243280784166703e-03
-8.498797532654565196e-03
-8.510187470439476223e-03
-8.519194470563479574e-03
-8.527183436621057697e-03
-8.535331468404955615e-03
-8.543139720892380454e-03
-8.549267691341693245e-03
-8.553526030756026730e-03
-8.557278960715819158e-03
-8.561717602945467798e-03
-8.566398776056477135e-03
-8.570044973222260346e-03
-8.572445376982975804e-03
-8.574775336761894171e-03
-8.577872548942062220e-03
-8.580879106287553001e-03
-8.582180601919503840e-03
-8.581397440646586217e-03
-8.579716509677806288e-03
-8.578142800376515470e-03
-8.576134846382576019e-03
-8.572558395570041220e-03
-8.567660224130762073e-03
-8.563297362569803270e-03
-8.561010627272651330e-03
-8.560484317115719249e-03
-8.560416908686530046e-03
-8.560542427937040816e-03
-8.562003827134019585e-03
-8.565589499668797846e-03
-8.570301482293044698e-03
-8.574261504707669443e-03
-8.576748873033362974e-03
-8.578645999792468627e-03
-8.580804751363090704e-03
-8.582700700272725622e-03
-8.583259408574867716e-03
-8.582629869643381218e-03
-8.582305786137686340e-03
-8.583292474256421639e-03
-8.584795930170330616e-03
-8.585274455033200733e-03
-8.584470753052098405e-03
-8.583681133973453115e-03
-8.583927436275656103e-03
-8.584571680773804558e-03
-8.584286324787302955e-03
-8.583025595024839499e-03
-8.582245615503750896e-03
-8.583024645923725826e-03
-8.584626090820411670e-03
-8.585444969233796755e-03
-8.585026313381911509e-03
-8.584426537930111081e-03
-8.584529633600264734e-03
-8.584755467904697096e-03
-8.583993779489458922e-03
-8.582428785583436429e-03
-8.581614083081390287e-03
-8.582557728061098595e-03
-8.584370575978940779e-03
-8.585329050642421730e-03
-8.584938291599002180e-03
-8.584241076281551655e-03
-8.584050275572348981e-03
-8.583631217566162555e-03
-8.581695218498400224e-03
-8.578320060205771314e-03
-8.575093481479913876e-03
-8.573216994249205358e-03
-8.572129250240465015e-03
-8.570501003994620073e-03
-8.568196135892719098e-03
-8.566491939516591991e-03
-8.566294640644107547e-03
-8.566871404567535930e-03
-8.566882994406908869e-03
-8.566275828158902497e-03
-8.566376025974388117e-03
-8.568032259480952081e-03
-8.570402342324451306e-03
-8.572118271998429087e-03
-8.573246234127711654e-03
-8.575285087219641431e-03
-8.579095243001624155e-03
-8.583504388585043096e-03
-8.586460045036018937e-03
-8.587182962277454396e-03
-8.586509701922956372e-03
-8.585201453594272156e-03
-8.582803775526937767e-03
-8.578756628431974743e-03
-8.574139974804367154e-03
-8.571380032385861325e-03
-8.571987397306440881e-03
-8.575159251170139108e-03
-8.578978731714682893e-03
-8.582461310364551330e-03
-8.585652100912229134e-03
-8.587832305705986671e-03
-8.586683861593778430e-03
-8.580077693834339131e-03
-8.568569875287772655e-03
-8.555614150750004074e-03
-8.545374861759304219e-03
-8.540850342177748813e-03
-8.543929725032472014e-03
-8.555683130443051884e-03
-8.574523530889560305e-03
-8.593125914760956288e-03
-8.597860708437713578e-03
-8.572946720832553061e-03
-8.507243982761300560e-03
-8.399702968030260328e-03
-8.261653276528732950e-03
-8.116703140583424528e-03
-7.998533352761393392e-03
-7.944961052473383661e-03
-7.987558184474297454e-03
-8.140197130449727467e-03
-8.392516276903631139e-03
-8.711780555358336273e-03
-9.051254846884857277e-03
-9.360502878438566390e-03
-9.594786217793223673e-03
-9.723269402491982114e-03
-9.735322645661173210e-03
-9.642245171987855190e-03
-9.472388444577031427e-03
-9.261604962502723026e-03
-9.043999260960033579e-03
-8.846542591795191618e-03
-8.687069922576132197e-03
-8.573379138377489050e-03
-8.503096283086401461e-03
-8.466004869144908018e-03
-8.449156967963476067e-03
-8.441942099440113284e-03
-8.437891557067013493e-03
-8.433310092374949121e-03
-8.425778931908795011e-03
-8.414528406658620951e-03
-8.401325523944951079e-03
-8.389489383266545211e-03
-8.381215750369866088e-03
-8.375912673236091122e-03
-8.371245845163105548e-03
-8.365426950142123425e-03
-8.358120737296579825e-03
-8.349492230357372091e-03
-8.339265667369335361e-03
-8.327171308320431217e-03
-8.313862850156615233e-03
-8.300666697018952919e-03
-8.288281730395995195e-03
-8.276151722102088881e-03
-8.263368863217747384e-03
-8.249862942976348215e-03
-8.236245799792553043e-03
-8.222553295922458913e-03
-8.207659092690926944e-03
-8.190216306646715128e-03
-8.169896115365697306e-03
-8.147312829283354096e-03
-8.122854501240353575e-03
-8.096132963080603789e-03
-8.066863043664145722e-03
-8.035941400969763906e-03
-8.005158596904822510e-03
-7.975825492137832845e-03
-7.948079125521730418e-03
-7.921700338607687297e-03
-7.897217850376414897e-03
-7.875743344913845034e-03
-7.857820925055720995e-03
-7.842986732422719404e-03
-7.830718187096076879e-03
-7.821434380829744848e-03
-7.816080095390760818e-03
-7.814850123925421929e-03
-7.816950487845024387e-03
-7.821942149594574706e-03
-7.830922183568574113e-03
-7.845791584533988450e-03
-7.867332287884828274e-03
-7.894477929005321026e-03
-7.925669013276471705e-03
-7.960449430991606637e-03
-7.999176083082292985e-03
-8.041302783251824682e-03
-8.084663976651104353e-03
-8.126841103985782758e-03
-8.166873462604374787e-03
-8.205129944857407834e-03
-8.241671779366199074e-03
-8.275431143453509247e-03
-8.305286891250150336e-03
-8.331422932741991069e-03
-8.354976447290126881e-03
-8.376418161968513312e-03
-8.394918151554841071e-03
-8.409594643627910787e-03
-8.420916376975685555e-03
-8.430300528979590979e-03
-8.438443192803285822e-03
-8.444676962098433826e-03
-8.448233843374258756e-03
-8.449661977718257722e-03
-8.450438458898175756e-03
-8.451317405909056224e-03
-8.451691325174728181e-03
-8.450816760479961873e-03
-8.449147034355442704e-03
-8.447862853610961856e-03
-8.447235039579394436e-03
-8.446160043760558844e-03
-8.443647504946352397e-03
-8.440303590317700666e-03
-8.437746663285061732e-03
-8.436659064265083705e-03
-8.436066110702994392e-03
-8.434802982943126123e-03
-8.433157893262916913e-03
-8.432442258368526289e-03
-8.433092122022083081e-03
-8.433940549570497630e-03
-8.433710550720808011e-03
-8.432737164678691735e-03
-8.432603072707035158e-03
-8.434193759628417011e-03
-8.436770699037166379e-03
-8.439192531955354640e-03
-8.441463739155103188e-03
-8.444430903052975446e-03
-8.448120056539313097e-03
-8.451161885607327492e-03
-8.452264761890357359e-03
-8.451837767159593034e-03
-8.451602383360345971e-03
-8.452725736707597179e-03
-8.454939445968080031e-03
-8.457644790107720842e-03
-8.461233247356765574e-03
-8.466633128469666647e-03
-8.473686245550983431e-03
-8.480701883922024328e-03
-8.485980613125002764e-03
-8.489402530217385681e-03
-8.492065084981455930e-03
-8.494574040818325678e-03
-8.496332670360760494e-03
-8.496690964131749582e-03
-8.496216341752132681e-03
-8.496226262937726231e-03
-8.497199764446201203e-03
-8.498284524652174182e-03
-8.498609002459958303e-03
-8.498592936773359530e-03
-8.499428746590063921e-03
-8.501429993436908708e-03
-8.503527293460669267e-03
-8.504635289799254011e-03
-8.505047481171264245e-03
-8.505967825437277252e-03
-8.507823001643995131e-03
-8.509642238626109745e-03
-8.510317523026535158e-03
-8.510013779260378747e-03
-8.509849059474425270e-03
-8.510350771040370299e-03
-8.510818743057811317e-03
-8.510415584668789418e-03
-8.509427303530847989e-03
-8.508951830748137657e-03
-8.509469067912682830e-03
-8.510273117893100286e-03
-8.510539019828945034e-03
-8.510547021029796211e-03
-8.511372810774783804e-03
-8.513440122178165745e-03
-8.515873863918835968e-03
-8.517514351490090840e-03
-8.518234286779099995e-03
-8.518831764686375999e-03
-8.519724771653859954e-03
-8.520294026062691373e-03
-8.519830403535979743e-03
-8.518847463515014096e-03
-8.518967730509748731e-03
-8.521426910980308897e-03
-8.526030542424827691e-03
-8.531781741881874076e-03
-8.538208802213389723e-03
-8.545560343219229735e-03
-8.553629516068958494e-03
-8.560887176073625829e-03
-8.565286231131704134e-03
-8.565940420289618398e-03
-8.563715414414188251e-03
-8.560134610768920307e-03
-8.556095809193633647e-03
-8.551959715669405285e-03
-8.548570201162916313e-03
-8.547442839114202315e-03
-8.549530652354723689e-03
-8.554045889032404690e-03
-8.558920783620926204e-03
-8.562418971298601036e-03
-8.563941029520519971e-03
-8.563214157533449375e-03
-8.559301957435358488e-03
-8.551178557277503214e-03
-8.539511568377821868e-03
-8.527541467514330661e-03
-8.519828384993566664e-03
-8.519953860299682435e-03
-8.528996711790701526e-03
-8.545035856892632675e-03
-8.562559507285027321e-03
-8.571619559792111043e-03
-8.558554151203308022e-03
-8.510043070328760298e-03
-8.419565969622507667e-03
-8.292867428578241246e-03
-8.149479868540178418e-03
-8.019888440144239822e-03
-7.939613479883858224e-03
-7.941303801613803365e-03
-8.045734150524681827e-03
-8.253916070188297913e-03
-8.543902146533893446e-03
-8.874667916317448280e-03
-9.195824993850010981e-03
-9.459117331441904697e-03
-9.628064318318741571e-03
-9.684325143846725034e-03
-9.630421818788675870e-03
-9.488007319212853757e-03
-9.291224106367828445e-03
-9.077029309631799714e-03
-8.876484259259272494e-03
-8.710147118940653882e-03
-8.587500936373081151e-03
-8.508307810390421111e-03
-8.464687036506289564e-03
-8.444366796571296796e-03
-8.435109178829955714e-03
-8.428410890846595171e-03
-8.420365790456917771e-03
-8.409967565020394151e-03
-8.397293727651366363e-03
-8.383206455533963666e-03
-8.369648680331347179e-03
-8.358833761859283534e-03
-8.351563481989022694e-03
-8.346637722828250880e-03
-8.342217801948041689e-03
-8.337504000559287781e-03
-8.332698657862402936e-03
-8.327583091509577207e-03
-8.320918285741699463e-03
-8.311661929805648844e-03
-8.300350932956340397e-03
-8.288627373633452103e-03
-8.277362982125177973e-03
-8.265766814605857507e-03
-8.252562144894667190e-03
-8.237558125076389209e-03
-8.221504659106477000e-03
-8.204571441791928474e-03
-8.185706826016870413e-03
-8.163859614495913228e-03
-8.139393411067615686e-03
-8.113714260326898228e-03
-8.087607547527995294e-03
-8.060579962090766437e-03
-8.032098907656335177e-03
-8.002960593655983682e-03
-7.974821531994000928e-03
-7.948496236453224395e-03
-7.923383711942356619e-03
-7.898855928813430446e-03
-7.875715508116051117e-03
-7.855695602407524250e-03
-7.839650921610393994e-03
-7.826891395403018370e-03
-7.816542633762137496e-03
-7.809038403762483434e-03
-7.805698406049029273e-03
-7.807024080165120283e-03
-7.812137689242644109e-03
-7.820205855564541300e-03
-7.831920082530651611e-03
-7.848989122172200100e-03
-7.872292409058295401e-03
-7.901120309122983479e-03
-7.934349720422766844e-03
-7.971705734882306854e-03
-8.013217248682331234e-03
-8.057636641649467898e-03
-8.102210584767368523e-03
-8.144439259584001709e-03
-8.183717013680844726e-03
-8.220814441651208559e-03
-8.255996806942594163e-03
-8.288315244142316698e-03
-8.316894288193741464e-03
-8.342259276903874268e-03
-8.365729784960538110e-03
-8.387642667014602246e-03
-8.406847388302248272e-03
-8.422202498362001133e-03
-8.434066695484600945e-03
-8.443807145415605994e-03
-8.452091787107826951e-03
-8.458376404394483267e-03
-8.462264976034580138e-03
-8.464746384895954073e-03
-8.467447059525920125e-03
-8.470821846197396782e-03
-8.473758463584710188e-03
-8.475195765605684356e-03
-8.475608959276943397e-03
-8.476387295122166446e-03
-8.478000388603993895e-03
-8.479477470499601974e-03
-8.479881464073616218e-03
-8.479699914981894335e-03
-8.480205323900766659e-03
-8.481666819943880706e-03
-8.482901213751992825e-03
-8.482810119181144470e-03
-8.481816397815217928e-03
-8.481274000850577005e-03
-8.481737543405330759e-03
-8.482517286835690798e-03
-8.483079332172287212e-03
-8.484208915165089571e-03
-8.487155176522157701e-03
-8.491831132802671669e-03
-8.496574798227558498e-03
-8.499940061687553602e-03
-8.502235339774366976e-03
-8.504845730161667700e-03
-8.508345404071894491e-03
-8.511972742724544655e-03
-8.515080135772443160e-03
-8.518414473708723483e-03
-8.523339603820682259e-03
-8.530006240293047312e-03
-8.536985047308166472e-03
-8.542904264274790022e-03
-8.547900458849923971e-03
-8.552973849813199150e-03
-8.558236576875506013e-03
-8.562540501250990796e-03
-8.565010254110954138e-03
-8.566327631520577468e-03
-8.567944607681508493e-03
-8.570284427356146192e-03
-8.572411792306118550e-03
-8.573621246272682822e-03
-8.574712356436335267e-03
-8.577118042751250351e-03
-8.581008443761114005e-03
-8.584939838896627276e-03
-8.587551562144248377e-03
-8.589059898307192104e-03
-8.590620401509223639e-03
-8.592555164461449652e-03
-8.593936795126747366e-03
-8.594065087673581627e-03
-8.593714114707964175e-03
-8.594348812608161234e-03
-8.596338038523023556e-03
-8.598588058419500899e-03
-8.600056852966209836e-03
-8.601024719773439284e-03
-8.602382651837658933e-03
-8.604012352549992096e-03
-8.604641741270801364e-03
-8.603513311080966675e-03
-8.601619177934855670e-03
-8.600741620187316722e-03
-8.601475587142354620e-03
-8.602782532127227488e-03
-8.603549617296772992e-03
-8.603955858711235735e-03
-8.604827252983417857e-03
-8.606019031434236632e-03
-8.606217188409748947e-03
-8.604540210094940508e-03
-8.601762484636810493e-03
-8.599450468743425821e-03
-8.598169524350916110e-03
-8.597206659977244328e-03
-8.596152936741806652e-03
-8.596085926726546034e-03
-8.598593427116730734e-03
-8.603821024350501862e-03
-8.610081204188388751e-03
-8.615487179506149326e-03
-8.619432288322400465e-03
-8.622124509260807243e-03
-8.623186486806917392e-03
-8.621608345212373667e-03
-8.617320522494314669e-03
-8.612182896134310331e-03
-8.608766568541065256e-03
-8.608214311238603783e-03
-8.609726258851832167e-03
-8.612077698953377047e-03
-8.614942558756458202e-03
-8.618248543239222931e-03
-8.620664596433165114e-03
-8.619640868693404998e-03
-8.613375277024919868e-03
-8.602494149611802574e-03
-8.589631238766024662e-03
-8.577823653855962474e-03
-8.569852170900990607e-03
-8.568686098242440929e-03
-8.576943778453173517e-03
-8.594161018476225225e-03
-8.613789510459615717e-03
-8.623134842252648882e-03
-8.607106630864377883e-03
-8.553578871168617329e-03
-8.457895323994895145e-03
-8.326055129570037600e-03
-8.176844360352812646e-03
-8.041449859308711853e-03
-7.957978607922584768e-03
-7.960785941915944283e-03
-8.068852171757625105e-03
-8.278924189241060327e-03
-8.566007886606556015e-03
-8.889454017841658465e-03
-9.201473124018744870e-03
-9.456377949442620195e-03
-9.619774431388490241e-03
-9.675685820037280976e-03
-9.628604830934733155e-03
-9.499440984639279453e-03
-9.317961067367422009e-03
-9.115677579879709336e-03
-8.920939787109666633e-03
-8.755331548971692635e-03
-8.630652223419755728e-03
-8.547830157021582553e-03
-8.499421041731390972e-03
-8.474710981877034421e-03
-8.464048404501789760e-03
-8.460130618443147121e-03
-8.457349787696088333e-03
-8.451749395137811080e-03
-8.442087948523713595e-03
-8.430078777000781995e-03
-8.418535159382289912e-03
-8.408944435624503277e-03
-8.400945919474952714e-03
-8.393855887842733773e-03
-8.387889105148708252e-03
-8.383442929471556643e-03
-8.379690734365709270e-03
-8.374759038506483441e-03
-8.367522526661442389e-03
-8.358691366150854118e-03
-8.349714468535040027e-03
-8.340949836527068381e-03
-8.331519525354727507e-03
-8.320922588152901075e-03
-8.310051923053892592e-03
-8.300102448841590805e-03
-8.290807974488159302e-03
-8.280426809420543197e-03
-8.267548538763927132e-03
-8.252343734774535144e-03
-8.235684826428335548e-03
-8.217497401608247348e-03
-8.196712351803097166e-03
-8.172908835115155410e-03
-8.147345570767457884e-03
-8.121894107564885112e-03
-8.097278985320637001e-03
-8.072984832782613765e-03
-8.048883390552187544e-03
-8.026262626134749237e-03
-8.006790754777101671e-03
-7.990834928414803848e-03
-7.977468103271370334e-03
-7.966165962314575993e-03
-7.957848261492156058e-03
-7.953814100171254994e-03
-7.954034383512253656e-03
-7.957177371167500554e-03
-7.962387161809024103e-03
-7.970444310126953771e-03
-7.982787735576035715e-03
-7.999776500869531723e-03
-8.020526891073241280e-03
-8.044398121762908263e-03
-8.071895431851544914e-03
-8.103617981064317050e-03
-8.138687375882799196e-03
-8.174909919547539844e-03
-8.210575131874470883e-03
-8.245522894871319328e-03
-8.280094452273425304e-03
-8.313492865993001718e-03
-8.343898388632480997e-03
-8.370259853071730996e-03
-8.393343418838211667e-03
-8.414592123582156913e-03
-8.434302359872787244e-03
-8.451506746101606835e-03
-8.465583524209634517e-03
-8.477280475382251157e-03
-8.487742712060443104e-03
-8.496967907181197585e-03
-8.503919450752198128e-03
-8.508192210654741405e-03
-8.510913010443212426e-03
-8.513568989687704189e-03
-8.516311701861907502e-03
-8.518026584984857152e-03
-8.518042338583980272e-03
-8.517115983140286645e-03
-8.516366886716133719e-03
-8.515706465992723198e-03
-8.514022593249960871e-03
-8.510921400422422067e-03
-8.507605377267907568e-03
-8.505585996216579250e-03
-8.504886493268557640e-03
-8.504118241666396710e-03
-8.502297323084977848e-03
-8.499954713874128751e-03
-8.498139695430140597e-03
-8.496839740987454509e-03
-8.495091925529611038e-03
-8.492630261446140055e-03
-8.490707901001709121e-03
-8.490834425467832028e-03
-8.493054153932240100e-03
-8.496054385404459494e-03
-8.498903961589501094e-03
-8.502021025151329167e-03
-8.506094568944619350e-03
-8.510567017559689945e-03
-8.513918137268218153e-03
-8.515483013717880037e-03
-8.516357680017926091e-03
-8.518127646723718319e-03
-8.521087729617496734e-03
-8.524271469330357495e-03
-8.527093924269524977e-03
-8.530221852960451559e-03
-8.534441659132837102e-03
-8.539163410134791368e-03
-8.542767354065733051e-03
-8.544458860468742700e-03
-8.545169554038337806e-03
-8.546295829583617706e-03
-8.547997663190696691e-03
-8.549353743628026331e-03
-8.550087331489184678e-03
-8.551398208835603310e-03
-8.554666446618475542e-03
-8.559738041858696092e-03
-8.565103958308105739e-03
-8.569718298337303253e-03
-8.574001582129793519e-03
-8.578754057519141427e-03
-8.583608504180207516e-03
-8.587262346423077744e-03
-8.589218186115315026e-03
-8.590627423614417835e-03
-8.593036888178091914e-03
-8.596707248807797588e-03
-8.600727082412577482e-03
-8.604634615127164377e-03
-8.609186749452824028e-03
-8.615161506245598913e-03
-8.621894123851949268e-03
-8.627690160206081399e-03
-8.631686311834502190e-03
-8.634697563024467531e-03
-8.637932114242002218e-03
-8.641348248585464797e-03
-8.643888480359813303e-03
-8.645216064368308265e-03
-8.646494673830735361e-03
-8.649069811062394877e-03
-8.652813505713013650e-03
-8.656379714763906552e-03
-8.659021333289886393e-03
-8.661518384832153986e-03
-8.665032122777641815e-03
-8.669549041045434765e-03
-8.674071398915229186e-03
-8.678204558174021019e-03
-8.682806017149751615e-03
-8.688673834565695253e-03
-8.695041352319755543e-03
-8.700022149941775973e-03
-8.702552754654108852e-03
-8.703363617226074489e-03
-8.703836766998910082e-03
-8.704442862597900829e-03
-8.704890881782854917e-03
-8.705602220520332682e-03
-8.708182245376203806e-03
-8.713936213811149592e-03
-8.722268145739798736e-03
-8.731105620115500038e-03
-8.738828476538800308e-03
-8.745193775998211932e-03
-8.750193786628088916e-03
-8.752691648040877848e-03
-8.751051203811748003e-03
-8.745279601431545091e-03
-8.738094431160595144e-03
-8.733625039121903702e-03
-8.735291739122456878e-03
-8.744890357020158184e-03
-8.762570663229310788e-03
-8.785808005706179438e-03
-8.807182879824258792e-03
-8.813635493086226583e-03
-8.789802439343330151e-03
-8.724649351636989611e-03
-8.617724679752582564e-03
-8.482025098326012938e-03
-8.343161583368806367e-03
-8.235674802673682848e-03
-8.196421522266831086e-03
-8.254877712336104040e-03
-8.422710830095443690e-03
-8.687522440751212910e-03
-9.014514199450917101e-03
-9.355226456336344920e-03
-9.658845635141013672e-03
-9.882099904362968285e-03
-9.996624743897532944e-03
-9.993812614602869820e-03
-9.885884650689085243e-03
-9.701516880746023294e-03
-9.476953432959234203e-03
-9.246702526360213101e-03
-9.037725913145732565e-03
-8.867524916284676498e-03
-8.743871004971183469e-03
-8.664949508731376385e-03
-8.621120486345170211e-03
-8.599304753014402891e-03
-8.588134324762432964e-03
-8.580548913046295162e-03
-8.572897947424214932e-03
-8.563013241702933237e-03
-8.549842849896405195e-03
-8.534189748810263113e-03
-8.518247854015207135e-03
-8.503513536154170410e-03
-8.489435964993085476e-03
-8.474661049941243501e-03
-8.459397713168238450e-03
-8.445912369876799192e-03
-8.436673197172835786e-03
-8.432734265048960967e-03
-8.434205288115750182e-03
-8.441213064816660214e-03
-8.452849019212928250e-03
-8.464945200254359731e-03
-8.470374426207429724e-03
-8.463186432796506245e-03
-8.442770588704866588e-03
-8.413395199525048121e-03
-8.379721739379918100e-03
-8.343638732266634925e-03
-8.305627507256623313e-03
-8.267662165829465018e-03
-8.232833048747846202e-03
-8.201936289133245073e-03
-8.172043306837005819e-03
-8.139671224796439508e-03
-8.104779908475370775e-03
-8.070412703862323359e-03
-8.038584857048064122e-03
-8.008101447041835949e-03
-7.977236898857716085e-03
-7.947355452744359061e-03
-7.922153325757371953e-03
-7.903315906833479135e-03
-7.888535022987518477e-03
-7.874744205104219560e-03
-7.862262053124017408e-03
-7.854237251586140833e-03
-7.852258951689576952e-03
-7.854304426319265800e-03
-7.857930135516338552e-03
-7.864251147943175993e-03
-7.877046089981441096e-03
-7.898037863414700960e-03
-7.924754947321704587e-03
-7.953881636677952865e-03
-7.985429761086165062e-03
-8.021917525514999509e-03
-8.063677019018115205e-03
-8.106850625950711917e-03
-8.147007118604282158e-03
-8.183582021956148714e-03
-8.219201881412382948e-03
-8.254986059309139812e-03
-8.288407129363007525e-03
-8.316641832632190243e-03
-8.340637098696148180e-03
-8.364068882738173033e-03
-8.388465261047370683e-03
-8.411157707221486937e-03
-8.428895612293828971e-03
-8.442171048621814958e-03
-8.454339433628110800e-03
-8.466838466790015463e-03
-8.477210182563883062e-03
-8.482719467517173956e-03
-8.484546181999242861e-03
-8.486658561771097745e-03
-8.490806064120457256e-03
-8.494475910138061733e-03
-8.494631014822031506e-03
-8.492112154659605880e-03
-8.490690308703309833e-03
-8.492129555613367117e-03
-8.494079837850471160e-03
-8.493646395410144392e-03
-8.491615192405585488e-03
-8.491448062617963297e-03
-8.494462197787461255e-03
-8.497923754491624668e-03
-8.498739610803270755e-03
-8.497647721852540081e-03
-8.498096464545345022e-03
-8.501365984811755025e-03
-8.504713773026374365e-03
-8.505156462331528791e-03
-8.503686235194631016e-03
-8.504084147472525806e-03
-8.507930429931316596e-03
-8.512642407009562290e-03
-8.515169036080818404e-03
-8.516165554133614882e-03
-8.518861626298985731e-03
-8.524240557729802215e-03
-8.529289455504197523e-03
-8.530835210281220021e-03
-8.529733547945053326e-03
-8.529657473336064305e-03
-8.532157803144117467e-03
-8.534775306944204082e-03
-8.534731321929417414e-03
-8.533017039444415128e-03
